6726,1.3105135624931126,1.3463329816305913
6458,0.17589744724038767,0.4075566332088904
7447,0.4536079523084704,1.2912704179494576
345,0.26200495851995353,0.4786339284708735
6901,0.39420249423961284,0.9318421271942015
6084,0.7232479451521595,1.314047948758636
4450,0.29786458269597516,0.437950823558514
5395,0.7021701319867232,1.306816952343011
5651,0.8229254894177366,1.6702959040765604
7014,1.1051052483098274,2.0220915697577286
232,1.0115320647835437,2.016919189106106
6910,0.42664905330985636,1.0868867784555127
7050,0.2367742944168589,0.3500456634875642
1025,0.9353196123215095,2.259443836247767
7722,0.9829089232811101,1.8997364634917653
218,1.600786378247781,1.9837413742793855
6014,1.0429516871244062,1.743958950987135
6623,0.25555745953978526,0.8915382754069998
7607,0.45572789403424646,1.374971340628409
7594,1.0574436470780286,0.6008404824177043
4302,0.9451952767290852,1.426516404476863
6181,0.1106638151648942,0.26114312826123415
4577,0.7363789260928145,1.5843276468301604
7431,0.6064032660483267,1.5382802351710394
6401,1.1976020843451456,2.257309491448413
5183,1.3045587883322862,1.6348257800632429
6629,0.44423948092743104,1.2936994911813984
7263,0.9402746137446479,1.850457486281304
5756,1.1618536203815544,1.6593458412377706
2691,0.1187422720521677,0.3556707338607171
7961,1.1872206832521173,2.055841273611721
6235,0.6942611475729689,2.0397480696860653
5323,0.4572965495133389,0.4147003871907082
6826,0.7804825421194157,2.0369575376953093
7151,0.9047186344733446,1.4476215877031617
6648,0.9426661504171818,2.098846354830795
6363,0.9204843231689344,1.9885225273750018
1267,0.8001218325901259,1.6046975549035647
6329,0.6837472872864013,1.6825891342451107
7376,0.2600346762432205,0.5087147121928818
5579,0.19234088870474245,2.0440407223343593
5295,0.22838385440325704,0.5582592838750119
6356,0.8279835618670118,1.641312786725046
2915,1.2261467980927188,1.692107989455986
7277,0.9769923796948068,1.2977704537120711
6728,1.8614336830353344,1.3463329816305913
3784,0.8800289622793332,1.44690270518447
7057,0.23861939955145256,0.6459585724068212
7977,0.4592835496270285,1.4176647906781643
2093,0.18216924755658698,0.0
7478,0.5193382239541868,1.7005332471434162
1705,1.513017150709613,2.2404819052274996
3837,0.2023751407580033,0.39385668303668736
6944,1.1829796003445703,2.026691210837353
6859,0.8956915363963257,0.9768681276654968
5109,0.8860680849218578,2.3266244444233215
5163,0.4158426084046386,1.2271833111740302
6655,0.8176857443381577,1.8988048697057212
6100,1.1484792238794863,2.423261980287104
6319,0.3781261920325116,0.9632692446824876
5304,0.22860622114030946,0.483434735053694
7599,0.23426453648585682,0.971539839843569
6886,0.6629317662939952,1.7174697569362931
6390,1.337112534581506,2.0009850882799443
7771,0.4538026195508151,1.6391689994682805
7141,0.3825246206206261,1.3236901479071985
6114,1.0076879585576262,1.3434553759815937
6203,0.09410934858438594,0.9826841350007475
6231,1.2963699387385195,2.0397480696860653
6170,0.2876814052900627,0.29018168920805665
1886,1.0858369102010204,2.643501614919291
4439,0.12328135844729243,0.3816115317717916
3122,0.9344149813496373,1.3022117940632538
5319,0.20097986751168898,0.3780357177359755
3312,0.6827587448385875,2.0443922009811986
5182,1.3536504718976299,1.6794355372347987
7922,0.27373515978922136,0.7722172665691289
531,0.9344195745340185,2.030484572038319
5235,0.7850590413533678,1.3467134728791124
7753,0.9563552404028411,1.5866358155883122
6927,1.458836229016949,2.523990490934381
6526,0.2633729538684573,1.686033468871633
6809,0.18235239999178363,0.6295168912560604
5986,1.2239066860205092,1.6603862348596592
7933,0.6030379951214611,1.996621523801313
762,0.33598806066243914,0.8558955899106367
6393,0.9493715766526135,2.1194281946080333
6636,0.822269780976108,1.8189070491531167
5550,0.2386195348107629,1.067063136871857
6928,1.4066791027091383,2.523990490934381
7769,0.7807786096765738,1.5780110146225326
5565,0.6356069817327964,1.2839776901895152
7578,0.8333061274555477,1.7371898507021837
4854,0.4509921812780797,0.9082024577382254
6412,0.5511132984357854,1.74562507336732
7911,1.1132974088643222,0.6240770139563292
5884,0.1612201644029386,1.6422976614229485
2005,0.5695584965412025,1.8616580997636267
7187,0.29725992227431935,0.5256042627219664
6045,0.9540516780713051,1.8572596177098828
7638,0.6366254270225803,1.7694639357373572
5198,1.1508341619204552,1.8336284748677802
56,0.1866542003344738,0.3528271678087555
7331,0.13234199805101915,0.8577028864964849
5814,0.8513580161341208,1.7718470123160177
7414,0.3231989316953069,1.2094256536192605
6632,0.5988897012086113,1.3569403560292361
6892,0.6939127822447724,1.1485304846825082
1921,0.5994265417926934,1.5199411622171255
3989,1.0898206245802922,1.605947792534343
1977,1.4060219587834009,1.9686731789543737
5871,0.30776753240852434,0.7121857371291375
5705,1.1196817047793668,1.6344294227707379
6478,0.18487871142152723,0.3082966490761841
6461,0.318065005409651,0.5809460425724283
6563,0.6476521148257885,1.6793848100791098
5333,0.12229968633302492,0.9276159572174281
3948,1.2290366012295566,1.6277123994384959
7069,0.31536906081165283,0.5774432185477986
7583,0.7366436891770091,1.2697734651876587
6143,0.18440651304556785,0.5197074907250201
1022,0.7706764036122326,2.6188093941133292
6293,1.2031150999063716,1.5556319961357867
6375,0.9173955539676374,1.9292230568012152
53,0.16970389013054765,0.32196555332291754
1268,0.7661899088087517,1.6046975549035647
7661,1.0668430529520063,1.602282380142638
7533,1.3167120051877526,1.950085704790929
6115,0.7139436437484056,1.3434553759815937
6413,0.6674437118994466,1.74562507336732
6948,1.2214355395214958,1.4944290911467248
5408,0.7159190119986404,1.9308027545080226
6798,0.08698498799358445,1.0647967995130028
5778,0.7366750449285173,1.2307856967452686
6831,1.0048995168746602,2.037152353985476
6617,0.412939628114191,0.6779105919812982
223,1.0182662660348387,2.0128513703543875
6607,0.8607749094131063,0.9990910768683491
1890,0.7525713426910579,2.3632194407239537
1271,0.5394605897142349,1.6845815962067785
5562,0.6703858994871001,1.6290851687893886
7490,0.9398004528181364,1.9690997986297465
3308,0.2856528683756087,2.0930653749860233
5962,0.6034081687198297,1.7873834323156883
5274,0.13984226387612958,1.2078282115972891
3093,0.31447792721766415,0.8342155196944284
7259,0.9126315821002255,1.7725371654274347
7401,0.4118299597488254,1.1227852328094632
7287,0.520272625539129,1.675110396398478
5667,0.4611924648380618,1.643840128885519
2694,0.33424753647454436,0.4337244310313471
1721,1.066891514395542,2.06420865550006
7216,0.917352263897852,1.527414318367261
5225,0.8830747525081589,1.8362200419688608
3310,0.5607864783967959,2.0443922009811986
6732,0.35109237047616426,1.3463329816305913
5259,0.8309533140621933,2.093552155186108
7175,0.7511595249400812,1.0620744953557946
4691,0.4366126785632796,1.4544699121493252
6205,0.10493443601666838,0.9826841350007475
6221,0.20030019318626255,1.9510973933007956
6402,1.272846955491999,1.9001278732169193
7281,0.8772757063112349,1.7058790052237753
7407,0.612886158074581,1.193235039802627
5412,0.49755481210098307,2.0155617438888065
6750,0.2242297109887911,0.5485083437476522
3783,0.8719338811431662,1.44690270518447
6167,0.4289838502819508,0.5815563548982852
6762,0.28191992843429386,0.6612483178023226
2932,0.20763035965692195,1.2126361754119448
5807,0.9062695081830956,1.7718470123160177
2098,0.1387275332204791,0.0
5638,0.7475684549906606,1.8929828655882337
5868,0.624971962999922,0.8394241692557373
57,0.20647652760528837,0.41203316497968967
3293,0.16093224284101956,0.7079518829958562
6008,0.8689021964596915,1.6660802505178336
6451,0.20796466449565792,0.4075566332088904
6239,0.6264903772269584,2.1521208313195244
6128,1.042968286293499,1.4957675391067502
7768,0.8576745796030072,1.5780110146225326
6079,0.9644016280660597,1.4441823960483224
6499,0.18838661198325996,0.4972281249172758
5361,0.9281234614359021,1.9525130691539905
6786,0.26738679231844054,0.4055601714507878
7143,0.7488512200078816,1.61095478379672
5529,0.6675036112770637,2.424177573457889
6403,1.2724307429161485,1.8581736158840458
5644,1.1369373288808124,2.298627532580154
1926,0.651146232749169,1.5199411622171255
6318,0.4648937286735463,0.9632692446824876
7176,1.241296928814875,0.7120147923809715
2617,0.6244241733782785,1.482248143745715
7508,0.6978695771336382,1.975573312497308
3094,0.36777596962403186,0.8342155196944284
5617,0.7812398872595334,1.9136320933139441
4445,0.21728375517822907,0.37364458626602276
6453,0.2817694636600188,0.4075566332088904
4836,0.8351799031572417,1.6304047972339657
6847,0.5844244000272114,1.2904064663985664
7338,0.3327616946507481,0.5508013002532024
5379,0.6887004431501805,1.4719346263778033
6852,0.7532462655706279,1.1221216500025843
2555,1.1383771707599646,1.4051748401679252
5388,0.6000369184427267,1.7350797520721768
5265,1.0048995168746602,1.1908218485709814
6744,0.23123196640162402,0.5775652544183757
5898,1.2298628825894902,1.6998264172616184
4810,1.1261737423837566,1.6169853352669814
5123,0.8790543463864947,2.2493648844328322
6447,0.12629804289851987,0.8586663750839779
7647,0.6896225064855436,1.5912393771858269
6661,0.6606929306180429,1.328793294272254
3317,0.6983072348126047,1.8495785334495836
6855,0.7346629384539802,1.015009559260006
5696,0.9068510333863095,1.5586109666051091
7043,0.37724438081748546,0.39221649899766
6992,1.189261740387586,2.362182186034645
7493,1.3011002266824514,1.9151872702694634
6335,0.9979684837126914,2.0308602703535286
24,0.2546341960962874,0.4353810812986644
7744,1.1654804600958295,1.3116766493136212
6053,0.9203519886467068,1.693106481974191
1703,0.8406718731926742,2.2703544805090856
4213,0.38969502666772937,1.5084860745002169
6516,0.24744206372084185,0.8498229926490448
6958,0.9684911310117971,0.0
6025,1.21990687335714,1.320068716580494
5754,1.2595307728743466,1.6983353196931117
2505,0.6797978494202964,1.2402444843714073
7129,0.47042474898130804,1.6349764513874927
5671,0.4498668818725625,1.6655705670694
7372,0.1556930297067839,0.4845518545667044
7098,0.14063643613799298,0.9561500924916797
5969,0.6573556635873288,2.0842156614262985
7659,0.8742884046487563,1.602282380142638
5200,1.1370426921286083,1.8462527095539925
3023,0.9483854924262338,2.215973802346518
5631,0.7873090153595642,1.9099167803540527
7099,0.13932354099605745,1.058797704896984
6418,0.8688572508915129,1.826529448254435
2097,0.22135575643778843,0.0
339,0.25390092762076705,0.5531075065002218
6190,0.32849804395835525,0.47514332018533906
3304,0.24690692738064146,1.4971851362877246
6022,1.2135311024183038,1.6945624639920591
6105,0.9558920920216094,1.9888688461096338
7526,0.5105683811320343,1.6756632061048369
19,0.18994429632884455,0.7025164966931149
1978,1.4805099132134019,1.9686731789543737
6430,1.5507130607314064,2.032397233990249
5630,0.7165957323504425,1.9099167803540527
3316,0.8359476995889568,1.8495785334495836
6320,0.38005900699334116,1.100576244482676
5199,1.119910963806993,1.8336284748677802
6247,0.6729181095333441,1.7168542753041958
6975,0.8509511387175114,2.0089841528940298
5998,0.838614301704382,1.91880132617091
1827,1.0856837470404486,1.3769092185342386
6674,0.5747237346013634,1.5242523236851884
5321,0.2767089215275571,0.3780357177359755
344,0.35352629946684594,0.47865369113879047
6775,0.16561553259925724,0.44320520973751715
7413,0.3351990591159103,1.2094256536192605
4217,0.3107033977687633,1.5084860745002169
5787,0.3921165801802275,1.5634046144718614
6889,0.6606929306180429,1.2366482333629647
6117,0.45944951756386293,1.4618880025212775
4307,0.8909415302845849,1.7182677770551753
6069,1.05157547213763,1.695469286879628
4694,0.16165699178955173,1.3652257637183398
6213,0.22469806633555434,0.6590284208500192
5818,1.0842734715146196,1.7629283722354692
5865,0.4296125608556699,0.8394241692557373
5640,0.9721443414708261,2.0423545505775227
1175,0.7310938335597291,1.6001457664385432
7951,0.5608531639447693,1.7209801042407395
5441,0.7118890588811133,1.1981408122758708
5901,0.6274453272877342,1.6998264172616184
5281,0.13782209414397173,0.3509218845332379
7758,0.9327613164256795,2.29218334227244
5359,0.7432475761602135,2.018825996976408
7696,1.6246311961763433,2.0031814265564503
7438,0.4850816258341488,1.2047625820140626
5567,0.6932826141684999,0.7445303704103454
1907,0.9100199484911189,1.3554889861748332
5172,1.0917576783170517,1.9207543436595178
3773,0.8942519348233106,1.8178761403178103
7496,0.8812905866321941,1.8243608699681777
5213,1.3493201972373905,2.0750068382491915
5903,0.9674063506221526,1.6723582615330321
3022,1.0066658079151103,2.215973802346518
1725,0.7729424050211617,2.0456963532017265
6127,0.7706764036122326,1.4957675391067502
7328,0.19488857218074868,0.919387019996103
4571,0.3537503799943882,1.1357384492494293
1674,0.7226892346472173,1.8545865557964716
6869,0.6599839873588593,1.8606598873168207
7453,0.6359703519218931,1.4364266618930817
5537,1.5560832313513453,1.326413988902309
7062,0.1667828214905979,0.7500420778613233
2692,0.20126522210623715,0.3831884202453287
6104,1.214753220866087,2.423261980287104
6800,0.1282889997736909,1.1132901768801347
6426,0.9595930899102109,1.8939018546320214
6023,0.9108844533304902,1.3200687165804976
7178,1.3604354444469102,0.6231582533454363
4206,0.4600237902071273,1.7001706945227855
7690,1.0632018694974383,2.4036930337367433
2629,0.884452144633151,1.2351643788333833
7920,0.1336130531700491,0.5853868878498792
4402,0.15608346840683235,0.5705506899285111
7928,0.46274763725643714,1.869129806449149
1265,1.0815956037826306,1.6046975549035647
7280,0.706244388105338,1.523919443519314
6261,0.7039691084939917,1.258997759291806
6508,0.14352746853650047,1.0744621498561784
4653,0.7725120004926858,1.383870356786681
1880,0.692238710204102,2.6166146390301384
7063,0.24807289571841043,0.7500420778613233
5392,0.6547434064569583,1.3719644704085283
6602,0.6202026253160142,1.493033832745354
6848,0.6620083532566767,1.2904064663985664
7664,1.1774471596280975,1.2209597441706117
7552,1.5314383467528176,2.598582999710136
7779,0.9484823202353315,2.1927768129789174
7544,1.0142998008434898,2.6132611509171157
6491,0.21304673574182936,0.39740075869563607
5453,0.4250721333051251,1.042720330434385
7907,0.6257676722208216,1.7478765726775256
4161,0.1161632790599385,1.0457078675556255
6322,0.45633899046340226,1.1549393592549644
6572,0.5366919242996728,1.405995000279083
5209,1.0084789648916952,2.2454335742654252
7627,0.3252058739224853,1.6973302398932248
6976,0.8360476042770327,2.1337392425491326
6594,1.059820986694751,1.711551744626258
7113,0.793192678142795,1.328831905217807
5366,0.7023139394250555,1.8668268443767126
29,0.2620343047228606,0.479606463043037
7695,1.3528478979260843,2.1698230026593337
7487,1.181079444701222,1.960777210380935
3025,0.9102204344460746,2.215973802346518
7525,0.5134662724967818,1.6622795982079095
3976,0.8960198207131662,1.2397824381372349
6881,0.790961953661925,1.8836017280088284
5279,0.15817948315044245,0.6973057440328833
6613,0.5348841842532275,0.7467458834012985
6683,1.2174652258793817,1.7811387007540294
7374,0.3294594114922297,0.5087147121928818
6825,0.732234875392963,2.0369575376953093
5542,1.1300394746311284,0.91098757802865
5808,1.0395003996088468,1.7718470123160177
6332,0.6195248920111809,2.0664176970279753
6113,0.8223902941099279,1.3434553759815937
5410,0.6353078202060072,2.110223373275907
6,0.38573392645773114,1.3233004414547032
5920,1.3167120051877526,2.2549746248005116
5805,0.8760361808900841,2.078297642324698
6263,0.5772628491987524,1.258997759291806
6867,0.5230761518583501,1.3907992016606734
5701,0.9606618055814093,1.6095070221962515
5188,1.0455323943621384,1.6348257800632429
5391,0.975666884224908,1.3719644704085283
5983,0.6891052690093689,1.6603862348596592
5533,1.3264007811779768,2.424177573457889
1072,0.5769711708834699,1.6444714677908043
6238,0.641107486862966,2.1521208313195244
5706,1.3247307951647602,1.6344294227707379
5128,1.3536504718976312,2.0246560181618722
5560,0.4778719721583767,1.5691670171590624
6542,0.8226411708272836,2.0688917651081273
3318,0.5468271627946081,1.8495785334495836
6465,0.3345275104254527,0.5662964614215666
338,0.26988284405963153,0.5260407513212226
7534,1.4643248765586594,1.950085704790929
7678,0.674832849392545,2.0171667014727177
6605,1.0612609826239572,1.1873389017799887
5404,0.5792073922623411,1.5756166302629424
7770,0.8014852316245477,1.5780110146225326
40,0.24734529521225287,0.7389272416150945
7597,0.3241393701035157,0.6008404824177043
7015,1.2691560927460106,2.0220915697577286
6712,1.3363730143882824,1.8492361325076723
7761,0.6928463359769286,1.9187678332965588
6586,0.8887321598232473,1.743564696130317
5609,0.7581474696563113,1.6258152964816157
4305,0.803285199706463,1.6909519178998902
7433,0.5409649801088102,1.473568410940543
6484,0.11189884771098299,0.3242944123608288
3778,1.2942725803470927,1.44690270518447
2822,0.31455966088819315,0.6827205246186221
6781,0.18022850728651216,0.44320520973751715
6818,0.23091900735765566,1.4964654364503018
6812,0.1552634343793979,0.6295168912560604
5518,0.7666804188307091,1.5684177206241694
3945,0.7583118563116344,1.6277123994384959
5202,1.2392332523890668,1.8462527095539925
5614,0.7175889745552577,1.9594653679046563
7427,0.4435663251401667,1.497540210320749
5126,1.7048192806712876,2.0246560181618722
2618,1.2648049261933982,1.1552604600890182
6921,0.4285681105635093,1.690633685743739
528,0.9501872390123003,2.240656407791026
2274,1.9458568023424019,1.6721631705967541
5937,0.8057632952137126,2.378160576384869
5873,0.25877075394607424,0.5690244048639584
5958,0.3602711357343986,1.6700558123020177
7131,0.4271520785761989,1.5539806596540675
6765,0.21180681127070916,0.6899056153123947
5514,0.5551811846453683,1.5684177206241694
1981,0.6950056679177274,2.2642751921087014
5249,0.8368052358193039,1.2379136256669887
5977,1.2718267040131235,2.4761897018342838
7960,0.8878066967215925,2.055841273611721
7332,0.13782209414397173,0.8351674216125357
6658,0.8223902941099279,1.6371229804320913
7455,0.530785746564877,1.5060250630128797
7327,0.18453950905522792,1.0831704275195468
7171,0.4296125608556699,1.4856025282636536
6520,0.3025356882083372,0.9172070845096664
6085,0.6942611475729694,1.314047948758636
5992,1.0357070178937706,1.7567522529110475
5847,0.19015378455068463,1.277179910355972
6863,0.4689978231300331,1.0990734897498646
6569,0.7346790589928621,1.5914758106445128
7567,0.603509285167999,1.5627031091522539
7912,0.662155032159417,0.6240770139563292
1995,1.4670821246244814,1.8178023019640606
5430,0.904982024462816,1.5022337322341652
343,0.2632097534037503,0.48441881960666644
6082,0.7383553883551567,1.314047948758636
4164,0.12710417056514428,1.0102010990344454
5889,0.3252058739224853,2.015564437074628
7152,1.2078327622231386,1.0135729863317573
3771,0.470906998953775,1.7117721017226781
7735,0.8480686183679257,2.627545576775268
7469,0.9816591198073527,1.4388018222324541
6583,0.8737673294573755,1.860813211845121
3609,1.1341728509944662,1.4466665659318876
6577,0.985965333335662,1.405995000279083
6123,0.7600980433443445,1.619078149946131
4442,0.1062714978238774,0.37364458626602276
5990,0.9011008259014668,1.6603862348596592
7689,0.8497806439402428,2.203163552594547
6182,0.1814674898799379,0.26114312826123415
6276,0.8505569617572422,1.9012194723163962
7970,0.8609658433304019,1.4176647906781643
5142,0.4624326494336789,0.7713793362696445
7956,0.5940173964901189,2.0174327690216027
7937,0.863813750497172,1.996621523801313
225,0.9770057211545784,1.9837413742793855
5551,0.33483814705948933,1.2084704829350652
6870,0.6289666927718356,1.952764409747278
6633,0.44191937980103657,1.5167828816107707
5344,0.16714612184359146,0.7279369511319425
3016,0.260052834917302,1.989230824177277
7609,0.20589494293692884,0.9607343111041072
7282,0.9337409155360641,1.7058790052237753
4837,1.1608303266605529,1.6304047972339657
6727,1.4503015286158756,1.3463329816305913
6086,0.6001729603818665,1.314047948758636
5554,0.3815200692354609,1.5691670171590624
6555,0.7548060143190214,1.7365086410985906
3834,0.49687063446562474,0.44490411040285177
6998,1.2030699759041459,2.2987384875199814
3288,0.11204192500392597,1.0452948545700789
1324,0.43982476983393154,1.3692986680011838
6336,1.1878794589213924,2.0308602703535286
5793,0.9762075543803919,1.5017231184879913
5623,0.9531489332240278,1.8256184615621496
7030,0.1846357672718489,1.29502461562555
6827,0.7534794229878321,2.0369575376953093
5174,0.929672046821181,1.9207543436595178
6689,1.3206210286948206,2.0048618480625167
6133,0.11395610023994665,1.3341618826985107
6268,0.42565969386826563,1.3389810111722078
7554,1.6071663153343438,2.598582999710136
3782,0.9121653827713287,1.44690270518447
419,0.936860139672736,1.619888594799476
5674,0.4753651629493573,1.7909073432239846
5837,0.5265043859754028,1.5021064109705016
7309,1.5339299776947413,1.2337122254651833
6724,1.406940309908838,1.6347603513494575
7509,0.9636429042358967,1.887057700307463
7776,0.6433881665345818,2.360637733882922
5608,0.7441269237648902,1.6258152964816157
6474,0.23992993401402304,0.3183005433775144
7925,0.7669526127464785,0.7722172665691289
7783,1.0625179253028654,1.3692784339618684
2004,0.7548969057556656,1.8178023019640606
7968,1.3203736377465018,1.4176647906781643
5231,0.8711999077536248,1.4287034752080519
5385,0.8994869448160243,2.0371027509909676
7321,0.09730669817006732,1.2093308927425352
7318,0.6961390262027704,1.2945538828812253
6145,0.2731925992868959,0.3732534915972545
6665,0.9828842250512889,1.328793294272254
7717,0.5932659314622167,1.7075079022687492
7913,0.7030994973074931,0.6240770139563292
6333,0.7696649110048027,2.1256986154522943
6417,0.8859972117559111,1.826529448254435
7358,0.25332779002569483,0.6537978054672331
1707,1.2780904832572946,2.2404819052274996
7213,0.8281915362553646,1.527414318367261
3067,0.3288353335718628,1.459074745427574
5419,0.7462819797684439,1.9857831797007914
2699,0.13282561436481644,0.444493975474298
6285,0.9540516780713051,1.9255151268650417
5634,0.6674025418980305,1.9069975413128453
7474,0.4385192200890407,1.4388018222324541
7705,1.3154821313133964,1.2066997714808214
6894,0.88534706694936,1.1357871265416768
6678,0.4820770104379453,1.7811387007540294
1077,0.40220439252040896,1.936982251606626
7406,0.6160946309309258,1.193235039802627
6501,0.14554361043568836,0.7753708538331945
5393,0.4174306419751016,1.3719644704085283
7495,0.9910229962938314,1.8895254746576882
7698,0.9031140861817887,1.2066997714808214
7464,1.6411645570898759,1.956782281636683
3984,1.1074355226186687,1.6750260069089196
6311,0.5232081170101042,0.9487076359356441
5976,0.9722800850265954,2.601215854210341
2928,0.5929640111860498,1.274650753476437
5806,1.0274867096682754,1.9364055532845006
4827,0.8393083625142578,2.3554884045074163
7146,0.6703747213240094,2.0051998727305036
2104,0.4233089562839564,0.0
3775,1.004263151719594,1.7119215653966584
5973,0.9844578348343369,2.4607426951254063
7158,0.5995589721487268,0.8222907672641796
2628,0.5070658999666153,1.2351643788333833
7335,0.31995586915201507,0.5508013002532024
5277,0.17803155457088843,0.8067116842064657
5521,1.2185656347259484,1.7117721017226484
7795,0.8824434197373576,1.0942211391086092
7576,0.7466352368514931,1.6577072321849042
6776,0.14207742512618815,0.44320520973751715
6503,0.12913184388066398,0.8947334318479434
5899,1.0457519162607418,1.6998264172616184
5932,0.934682608657364,2.1694423353015564
6521,0.28776099236160013,0.9396679733279821
7116,0.5115052359018577,1.328831905217807
7070,0.25332779002569483,0.5324787999824784
5610,0.7229527559851314,1.6258152964816157
6243,0.7548027725620678,1.7199377101588202
4808,1.2597346478949338,1.7898029097383947
5243,1.0693289041738472,1.4350912383813237
5926,1.0816440605328463,1.8823568286424552
7857,0.43262702981009993,1.5559469283094465
5362,0.9093184234594143,1.9405327371074683
6013,0.9277976937859532,1.743958950987135
1984,0.9922655470326052,2.10861031062587
1998,1.152101851971294,1.8178023019640606
6091,1.0375981182968006,1.6787835068627137
346,0.22960091459521806,0.4483138358914123
7608,0.6329122396463676,1.0326117736847318
5934,0.8286829849792835,2.2332661717841225
7938,0.9075609771794431,2.100407640558661
4429,0.2565423383092136,0.4382834291116475
5648,0.817703585583517,1.7740148134450546
2935,0.24070242515048637,1.2126361754119448
4834,1.0898311835225494,2.323205723106963
4422,0.26961739324831363,0.4382834291116475
6163,0.1983693660502211,0.7920769564001667
7054,0.21620012966707808,0.46914320081000854
5869,0.5023586876395753,0.8280099846229473
5113,0.6551386034156594,2.39139676042955
1982,0.9295732281597134,2.370662425434026
7803,0.42976229607741295,1.9037693226480317
5346,0.19563885295281946,0.9335326426430403
3981,0.6918613446906228,1.2636955572379875
6109,0.8634968243605182,1.3434553759815937
5650,1.285799915977913,1.6708712948649656
1895,1.5043374878267972,1.604650483784352
5949,1.233715408674793,1.6815863021423918
5302,0.17208583838375693,0.5582592838750119
7212,0.5959131933044796,1.4704324088805512
5822,0.8317503826901468,1.8241329779448765
6340,1.1015147140391743,1.6849560444996692
1828,1.2909223567131358,1.3769092185342386
5850,0.19272417371053643,1.3805953942901215
7658,0.6178293101472917,1.602282380142638
3540,0.44844766733309105,1.9590911184029984
7405,0.5552292107899554,1.1227852328094632
7078,0.1597150050241862,0.4877560117491797
3919,0.6638209955392943,2.0615790182171967
3068,0.34288208482995686,1.7729695524968223
7561,1.1649449669688499,2.0478942623455785
6875,0.4913500634024757,2.188176423144529
6527,0.2563756676861335,2.07771733399862
7186,0.26034731390323695,0.49032128490813853
1709,1.9536204035461835,2.2404819052274996
7420,1.0462694478985894,1.1479405707963768
6839,0.6720804543827337,1.6515905879259716
6932,1.53133454671524,2.3656156010647136
6715,1.24718859801159,1.8492361325076723
6448,0.14734133767267638,0.8409980283545214
2504,0.7618699459255724,1.2402444843714073
5600,0.6304506638752322,1.6764252241764963
7339,0.38315083150445023,0.5507018264475114
6307,0.4644422054722606,1.0079897350761824
4291,1.0318707606837036,1.538427573564808
25,0.36518063972251014,0.4353810812986644
3013,0.2545303497061728,1.560731084329809
7785,1.0615096255323289,1.2785753146166186
3963,0.7911464611748292,1.6305795419716471
5672,0.5844244000272114,1.7051525418185376
6274,0.8539392214254423,1.899843018752136
7484,0.6310130457081078,1.8640159174505273
1883,0.7738233072106635,2.6166146390301384
1325,0.4969973015387836,1.3452485198495905
5639,0.9744623932077986,1.9069975413128453
7261,1.0644688628089238,1.7725371654274347
6966,0.729126871368651,0.0
4397,0.11180031291383999,1.2913243481855583
4574,0.3437118250790422,1.3607539485016085
5574,0.13650233695887054,1.1055223733436088
2620,1.3009240110588776,1.1552604600890182
49,0.20366848777184346,0.33640156017328815
3920,0.9678938737906282,2.0615790182171967
6496,0.46271150653992044,0.4972281249172758
7796,0.7659962108526577,1.0942211391086092
5162,0.4773029689784572,1.2007492545114327
1727,0.9115774222901831,2.06420865550006
7639,0.7462819797684439,1.7694639357373572
7075,0.12761527534740014,0.4877560117491797
6742,0.18925778001833016,0.7170373129005752
6416,0.6486345390086071,1.826529448254435
6364,1.3302847581812307,2.018578096597986
6702,1.1806101731514793,2.1078377316428725
6706,0.9938696643363757,2.21768647283589
3011,0.27091370179641,1.1121846301967635
6845,0.4130262617197937,1.3456768603594147
5879,0.2925431711395857,0.5690244048639584
1076,0.513648766459343,1.782811639954469
7445,0.37417407380449963,1.1307986349055903
6456,0.30562116704249664,0.4075566332088904
7199,0.5202631209244624,1.0720963697035424
3028,1.2745231220948066,1.9680431095114155
2490,0.9267088710620225,2.5470737986583467
7189,0.3991047864752495,0.5256042627219664
7470,1.6801495081906412,1.4388018222324541
5383,0.5202952960530512,2.029858673266522
6977,0.8360476042770327,2.1337392425491326
6792,0.2694622201692991,0.4055601714507878
7156,0.7117381500775414,0.8222907672641796
4218,0.4130262617197937,1.5086453501707862
7648,1.1406402587279025,1.5912393771858269
6191,0.36168346366504645,0.47514332018533906
241,0.9308718447900506,1.7175597419530024
7628,0.33500091023614004,1.7965139924189975
5859,0.9060041542787243,1.4631613655114968
5257,0.6356442700282133,1.3891265671702167
6914,0.6864166037575677,1.1577816137050994
6129,1.0921490411712689,1.4957675391067502
5830,1.0587605735007926,1.690432941982728
6002,0.5979182368125892,1.5207507232617576
6574,0.705075302995019,1.405995000279083
2485,0.5264679332538129,2.159562034000239
3299,0.2004257449443277,0.9888313681997938
6935,0.9816591198073527,1.881748124495816
7046,0.31438965885383974,0.3500456634875642
3776,1.107808013578271,1.7119215653966584
7949,0.44494138989547216,1.430620655266454
7126,0.8954422845323085,1.6378038334572305
5950,1.1330439574722475,1.6815863021423918
2503,0.9663057284682189,1.2402444843714073
7943,0.7030994973074931,1.4185306613923865
5531,0.37847673659558556,2.5108460379097064
229,1.1761466680283712,2.016919189106106
1989,0.9457740462793316,2.0843821943566643
5401,0.531374921418354,1.2996979479091764
4847,0.5706057582576005,1.0166757430635625
3958,0.8976804331511363,1.7477210186143397
7574,0.5018112509817629,1.5804758460193267
6908,0.4154275900377938,0.9857153097486789
7073,0.19436304876439664,0.4877560117491797
6029,0.8112187031796504,1.320068716580494
7067,0.45283694601899904,0.6111651654147835
2009,0.844251255245414,1.8926127456252868
4292,0.8517960380501796,1.4669343067393568
6913,1.0277969049015951,1.1577816137050994
7465,1.6949994774177595,1.8606331253148298
5769,0.911398084296362,2.3630450389339264
1184,0.3136504186596653,0.7804899034472746
2111,0.1728519978543813,0.7755188875436082
3091,0.4509921812780797,0.8342155196944284
5275,0.1476614058447872,1.1694476489027696
4684,0.7973788985960563,1.6540931707817457
5637,0.7961659159416287,1.8929828655882337
7362,0.2232722008196545,0.41778845550743476
7592,0.6124175254401769,0.6008404824177043
2553,0.4409762031626703,1.4780717086447217
6071,1.2812382347687299,1.695469286879628
7716,0.5897757056963642,1.5084701738988158
4426,0.21795179147804938,0.4382834291116475
7194,0.39571279559031514,0.5256042627219664
3102,0.5495297622161315,0.988789580538407
6445,0.09929898771613903,1.0872310137162982
6821,0.2815823137072601,2.408740622630491
5447,0.7087342795176959,1.113273639980088
7035,0.11398879169505031,1.1079517532074121
5360,0.8953498530482846,1.9525130691539905
4677,0.9204843231689344,1.67625419042041
7125,0.7040029277573265,1.651796783614452
7106,0.25173432089777126,1.6569614037156764
7691,1.0199867692458355,2.2670867145558637
6759,0.20520370385903555,0.6612483178023226
7957,0.6085903427150688,1.7314825866134902
5942,0.7922500889052058,2.4340590251750345
5436,0.5407973502969652,1.5022337322341652
7155,0.637358675946557,0.8222907672641796
6833,0.7767223140864046,2.1794251707336896
6316,0.4209420083856662,0.9632692446824876
7764,0.917352263897852,1.5780110146225326
6042,0.9954591781064541,1.8621183730090989
6432,1.0682557526062835,1.4014075189880917
6659,0.9583952309194764,1.328793294272254
7909,1.2725964201072173,1.1056306118151624
5520,0.8990148321033222,1.5684177206241694
2484,0.6040953508679435,2.1336254156171273
6468,0.22057956011533073,0.5662964614215666
6383,1.1052074334804458,1.9597237292995047
6700,0.9944903161976941,1.9527740054341451
7668,1.1454662092136274,2.261078115202207
5012,0.28227241277012727,0.6909653765929452
5195,1.265165037477406,1.7964364544320164
1030,1.2826565505951755,2.0517510686376204
6612,0.4589961230252928,0.7508159883920347
7104,0.2272194888541011,1.2327918926719084
6081,0.6879332075393668,1.3857968288627553
7919,0.1205170040692069,0.5391159923124261
6736,0.1593853590604717,1.2876949892799723
5254,0.9268776355066652,1.2379136256669887
6262,0.7177531312942121,1.258997759291806
6141,0.25917487872147155,0.6303509290603379
6796,0.11117653431673076,0.993689966863879
7137,0.36263668303760127,1.3236901479071985
5775,1.1558805699786179,2.256997516946833
5282,0.21746609072290343,0.3509218845332379
1826,1.3764301000593253,1.3769092185342386
6963,0.8363051351782126,0.0
7123,0.23036749963173075,1.8155364784592969
7942,0.861556977782918,1.4185306613923865
5147,0.4052222088600881,0.8036306251744024
5325,0.3372645957961503,0.4147003871907082
6153,0.2195186209329934,0.49415958718757214
5168,0.7075756427800317,1.7320013239536862
6087,0.8801717843186636,1.4444209980258043
7915,0.5469082404055395,0.6240770139563292
6790,0.7330925496950288,0.4055601714507878
6686,0.9486348471448447,2.150308433086199
7577,0.29212052617655704,1.6577072321849042
7290,0.9676349465850116,1.675110396398478
3960,1.2858565688908814,1.731311906513273
7417,0.571896765229801,1.1479405707963768
7502,0.5289933539135028,1.8243608699681777
5136,0.717673447776049,0.988791155880355
6813,0.2111375501592358,0.7340615895722383
6284,1.2820199200932898,1.9255151268650417
7430,0.6595660724168552,1.5932350994909605
5612,0.5728458725356386,1.6258152964816157
5916,1.1445011805154552,1.6197589630883291
7736,0.7036670610418956,2.627545576775268
5297,0.2497622416775529,0.5582592838750119
7047,0.20151762698906914,0.3500456634875642
237,1.0096117628169925,2.1847089696539985
5597,0.6043988259786621,1.7370462000956013
2096,0.14909748348232993,0.0
4849,0.6059590500499051,0.9822477325104022
7500,0.9842604254859864,1.8243608699681777
1988,1.3495597386775944,2.10861031062587
5156,0.599123559132078,1.1920028758852261
6435,1.3681989595494852,1.4014075189880917
6099,1.1829796003445712,2.411660761211941
6396,0.8390638277062314,2.4014281698249738
5338,0.15153861478835792,0.7527865490625578
6741,0.1559300079983099,0.90620717417379
6489,0.22866108415188757,0.4201678626767277
2917,1.094441907842561,1.692107989455986
5663,0.5542891318065414,1.550811800728899
5891,0.46453131748110205,1.9347245894938419
5960,0.37554649674559887,1.7063834479827595
5138,0.396516142283676,0.883592578599624
6748,0.3232895595348492,0.5485083437476522
1710,1.7093123539601152,2.2404819052274996
7800,1.341012524741425,1.0942211391086092
3970,1.0925627069493502,1.3936332077334614
7564,1.5080953368299614,1.6362616489760182
7357,0.41602488741729676,0.6932527586328515
5877,0.4485993262489639,0.5690244048639584
4647,0.6187030854736775,1.7217986109438543
236,0.8782558008812882,2.14011977561368
5456,0.35742782384620714,1.042720330434385
5994,1.0541701533240948,1.7567522529110475
5654,0.8886301359025387,1.624486051499443
7674,0.8621971632944264,1.8847653903353028
5878,0.4195894100628645,0.5690244048639584
7418,0.8188911331016565,1.1479405707963768
5670,0.34539641892318274,1.6655705670694
5064,0.19757075902957102,2.262662409886751
7072,0.2236112142615488,0.4877560117491797
5437,0.6229938606274025,1.4937146268658714
7195,0.32063916404858805,0.5256042627219664
7144,0.5265272268790766,1.7656775216952838
5970,0.7749890283204972,2.1532453618227776
7958,0.6446115507942832,1.7944112524670885
2616,0.7406027775805056,1.5982216577961554
7950,0.5932659314622167,1.7099742672085982
760,0.377721808067446,0.8927981269056601
5230,0.7238810806950814,1.5188697315478958
6874,0.5251559954293407,2.1821264582063633
7730,0.49132122322511557,2.2719473645687023
4828,0.7418602859713476,2.4735745185628493
533,1.013081457233191,2.030484572038319
5532,1.3572856696131306,2.485522284425147
5821,0.9172128188801171,1.8241329779448765
6544,0.6353078202060072,2.1536318353196853
6684,1.409282659336237,1.8841431354433835
5201,0.9326220144253712,1.8462527095539925
7517,1.093634255213166,1.4577293261161692
4576,0.5058981619155366,1.4720052786172595
3020,0.5675619978217757,2.5152672602276844
2495,1.4317096865313146,2.0831979639126845
3840,0.45673995980387805,0.44490411040285177
6567,0.7300493216409638,1.7320438092992583
6677,0.6289593210764302,1.7811387007540294
530,1.0296644802681587,2.030484572038319
3292,0.15403309989175437,0.7079518829958562
5132,1.1885718693799174,1.1496489755542993
7185,0.26798332963850036,0.49032128490813853
6212,0.16183650749008896,0.6590284208500192
4815,0.7475090494269779,1.316782213008606
3095,0.4704590720390762,0.8342155196944284
5149,0.38161358991127914,0.9535796312938353
5271,0.11166418305113346,1.2078282115972891
7670,0.6356069817327964,2.2241346210693007
7521,0.7352012330177444,1.6622795982079095
5399,0.44273477788592425,1.2996979479091764
6208,0.12311311506940019,0.7056902707371027
1693,0.9797133310087967,1.5804835931806687
3301,0.28476762109496734,1.2293581025943499
6338,0.7715955207741898,1.8749635103396867
1906,0.7891863228613525,1.3216325213747362
5676,0.42166065329158814,2.231859351248453
6773,0.17081436034965292,0.47069842525603
1975,1.4224906501280707,1.9686731789543737
5187,1.0605393032924606,1.6348257800632429
465,0.3127548493206867,0.8772967243073346
907,0.2110125259561473,0.4536001578858495
6769,0.398904500246534,0.5642325002569133
7756,0.7727548104627773,2.29218334227244
3917,0.6857335375993046,2.0615790182171967
7359,0.1716479718582976,0.643742248226478
3291,0.14699730755537826,0.7473494581776855
6565,0.6034742539339769,1.6878043330994852
1873,0.37038291381289773,2.4984673640073383
5543,1.044403900302165,0.9019921868823162
6514,0.17507849054202498,0.909639415458323
6312,0.4845370640269287,0.9129241639006584
7615,0.49276323720778187,0.7681986516374365
6258,0.683427643579494,1.5454551219534154
6350,0.6590942245816149,1.4581991262494278
6856,0.6650472244614736,0.9768681276654968
1033,1.0535348202711068,1.949232209630792
1079,0.6849126356689695,1.936982251606626
1980,0.8702421092926681,2.091670043848744
3971,1.2803687993289605,1.3620155431385657
5227,0.7606414650648664,1.7225704071675938
7969,0.7692348155828963,1.4176647906781643
6397,0.9456359907967773,2.4014281698249738
5211,1.0076833530369123,2.18754698613186
5915,1.2457898669246115,1.6197589630883291
4443,0.19125839166968164,0.37364458626602276
6168,0.43529612419578156,0.4401070749611625
5816,1.030328755220312,1.7629283722354692
2107,0.44490411040315836,0.0
1719,0.8873153032316805,2.06420865550006
6157,0.24123405208712953,0.749819482344813
7323,0.13184326939466784,1.2681483700649097
7631,0.535407420169357,1.7965139924189975
5917,0.7201775326295732,1.6197589630883291
5823,0.8918785063429355,1.8241329779448765
5825,1.0340141152575517,1.8241329779448765
4846,0.5879292689441769,1.207767777115222
7629,0.4258124930069578,1.7965139924189975
3066,0.39561447879286044,1.3165797412127722
5626,0.7257309825757924,1.8256184615621496
5185,1.473355995428276,1.6348257800632429
6703,0.9121805282641838,2.1078377316428725
5261,0.6671130543045501,1.6203801093107237
4695,0.15838062662963784,1.3394557171594554
6236,0.8170332931941962,2.1521208313195244
62,0.24540837853045375,0.3444480490310462
6581,0.42617810889923163,1.8506615090397094
5287,0.16289672075288136,0.3509218845332379
6389,1.385608716971733,2.0009850882799443
6286,0.7847927005481946,1.9805488026842375
7396,0.21111721043086978,1.03535713254947
6102,1.0591322404491665,2.423261980287104
7346,0.262375633295417,0.60980460698725
2925,0.8878066967215925,1.274650753476437
6611,0.5651064131801925,0.8379033554940009
3103,0.31723365589361874,1.0073849502965504
4575,0.5369570948151007,1.6216990742396602
7765,0.6594933159716809,1.5780110146225326
6126,0.9794579184690483,1.4957675391067502
7745,1.4279688638666705,1.3116766493136212
7356,0.4255746584130672,0.701473307281401
5664,0.4892318606372513,1.558588628517228
6225,0.5003867245285468,2.2344209559581962
5220,1.181536171432845,1.7225704071675938
5424,1.0015752637778548,1.708792092249418
6618,0.29558504719484757,0.6779105919812982
3788,0.18560807615887853,1.4294995858469575
7975,0.5694460055738884,1.4176647906781643
6642,0.9681804477015625,2.058347413691344
7762,0.7949811392416237,1.8106066880161962
1898,1.6580735374404336,1.3554889861748332
5684,1.055225229755989,1.7300765891710626
5238,1.035094491458462,1.3467134728791124
5682,1.0162920716544628,1.7661456724423843
7018,0.8958568457704351,2.240554834918463
5595,0.831725140605257,1.8213840767156375
7569,0.7994660411773479,1.5804758460193267
4696,0.15995316285695654,1.3652257637183398
7145,0.803076989725773,1.7690989722711017
6204,0.09505851820170791,0.9826841350007475
7755,0.6682381799268856,1.9643512331015704
7086,0.5177360038835742,0.5239689293071002
2547,0.6821543540545395,1.8809886911264695
7311,1.679438245519263,1.2337122254651833
6770,0.3293221282338589,0.5642325002569133
6001,0.668253916554625,1.5207507232617576
5862,0.887917912527626,1.3696395054542405
7587,0.7909269153950562,1.0443825409426288
5568,0.692862454385852,0.7445303704103454
7860,1.3167120051877526,1.353746753637888
5981,0.9673716206000169,1.6603862348596592
6676,0.44003146933125237,1.5242523236851884
6169,0.40077768508419553,0.38931052450130715
6292,1.1564415324981092,1.5556319961357867
5105,0.6286449555496404,2.084438720950233
5242,0.9738650377164135,1.377996974203015
7391,0.3201297377587609,0.9382363475439632
6551,0.45440651730154663,1.9096327846985468
7353,0.3608396541154556,0.7421811920815581
4152,0.3899061043510493,0.40174001105647394
6851,0.6655498604340819,1.2362948999887367
7267,0.7266352567380392,1.9087323293740721
5189,0.9870131382713906,1.6348257800632429
6509,0.1397447877509623,1.0744621498561784
5161,0.6229938606274025,1.2007492545114327
7947,0.6206980301382595,1.4185306613923865
7265,0.8206803678634219,1.9999245150704579
5581,0.409371656095107,2.014072111394895
4148,0.41966889111258304,0.40174001105647394
4440,0.2023751407580033,0.37364458626602276
6273,0.841684700642664,1.899843018752136
6220,0.19613323382114364,1.6227443192415363
7308,1.3457369418795262,1.2337122254651833
5236,0.8295363246848891,1.3467134728791124
3427,1.3146843962443588,1.5244668961656396
5145,0.37191699720504867,0.8036306251744024
5561,0.3045476306578389,1.5691670171590624
5699,0.9275723748469783,1.6308473439033366
6065,1.0828884414403384,2.4016300990516064
6893,0.8372504638997759,1.1357871265416768
5896,0.7884333292363588,1.6998264172616184
5515,0.7526430990070799,1.5684177206241694
5241,0.9233953961182495,1.3467134728791124
59,0.255910605199929,0.41203316497968967
6534,0.7363885301430669,2.0931380000315207
4200,1.0493972799089448,1.8012334765215416
5698,0.9327529479537445,1.7117721017226788
5897,0.9399543353968302,1.6998264172616184
5117,0.5995361915821013,2.3422422439232093
7162,0.3248110789298542,1.3507461475616027
6529,0.32493580328712696,2.3396981324961383
5308,0.23959616786051455,0.3573410191846565
4692,0.17420556933585962,1.3652257637183398
3787,0.13217313458074406,1.3961429651886188
7550,1.651445647689543,2.6132611509171157
6591,1.3397490155005776,1.5847017613946366
5389,0.6442456732049954,1.422113751497706
909,0.09219721164626632,0.4536001578858495
7092,0.18755079056994914,0.5874020579966773
23,0.367419117445062,0.4353810812986644
7456,0.9274975282587234,1.5060250630128797
6710,1.1676949972321307,1.8492361325076723
472,0.31629007931413905,0.7346287587321775
6488,0.2377071948340145,0.39817374918274445
6162,0.22185502929491074,0.7903257224631894
3979,0.9739395762368016,1.2397824381372349
6883,1.2637465304607294,1.8836017280088284
5330,0.10899949638099012,0.9095472068251914
3838,0.2793682376756441,0.39385668303668736
5817,0.9832405314899,1.6054804600573824
7738,0.739291229563485,2.2914379628236414
5124,0.9676879302815615,2.0246560181618722
6954,0.6800023838829952,0.0
5747,1.007904898590994,1.723856233134143
6362,1.0014321206562729,1.9699111199399422
4431,0.2634729450468761,0.48266790682787303
5434,0.5467731644828219,1.4928563732477091
6838,0.8005230905460906,1.6515905879259716
6066,1.0492550597624808,1.8950366438163717
6630,0.633847459918681,1.2936994911813984
4686,1.01395441556604,1.4544699121493252
6530,0.41810703078898476,2.4414690564426076
5546,0.7949811392416237,0.9019921868823162
6492,0.24001899093650775,0.39754186483307125
5144,0.35600870632746345,0.8036306251744024
2506,0.521556067262521,1.2351112704954306
7489,0.9092135109899101,1.960777210380935
5840,0.10381101541995726,1.3914120656415925
7972,0.8758801756961178,1.4176647906781643
5758,1.0570337582302551,1.6593458412377706
5439,0.5369570948151007,1.3490868517168635
4293,0.7850590413533678,1.4326155437228518
4690,0.7510752651883972,1.4544699121493252
5607,0.7524826034473826,1.6258152964816157
5140,0.47239992121651186,0.7713793362696445
1869,0.8705327692032983,2.1931776240866374
5658,0.620285001128367,1.4047828901582706
7542,0.7080124118565514,2.5895882330534175
5396,0.7543579620414795,1.2996979479091764
7439,0.6212314621699935,1.1307986349055903
7637,0.44844766733309105,1.7694639357373572
2008,0.7841907979945003,1.8926127456252868
5860,0.9085592067759749,1.4631613655114968
5216,1.428965793731151,1.7250422416487996
3104,0.3566840264520805,1.1430066258855653
5258,0.7204649903616782,1.9946342339690022
7980,0.7622329031168433,1.4811885901493622
5947,0.8764571052362065,1.8239542176589556
6990,1.1029610024862981,2.064679122909664
7471,1.2804406961883108,1.4388018222324541
7948,0.5409928006653655,1.4185306613923865
6590,1.4012289783763066,1.5847017613946366
5226,0.7606414650648664,1.8845764511146108
6094,0.9952113652544446,1.9700133542140843
6764,0.21485396611085403,0.6899056153123947
4210,0.6364950493241144,1.6534908939473345
36,0.3064892943367778,0.6771721459888241
2116,0.08088694409752636,1.1093547058044388
4203,0.696949457048256,1.8656872174136738
6255,0.7085052552622161,1.6673295197341726
6842,0.7045077682248407,1.6023732821318266
5967,0.7559708340960392,2.0586830886081118
3988,0.8424033678566171,1.605947792534343
2105,0.5374404542585209,0.0
6698,0.8758454442205894,1.8226053810754423
4572,0.31822393605189353,1.1567101476444146
6749,0.32908064167309087,0.5485083437476522
6996,1.8420424357228427,2.2987384875199814
7009,1.3213306107308018,2.0220915697577286
7093,0.13841795524291658,0.6707863882137013
6834,0.9757792865090998,1.9792645600933128
3321,0.7510205287534285,1.8322336944517377
3426,1.369278433961942,1.6621822878951826
46,0.3546857444477778,0.33640156017328815
7854,0.5798942969373523,1.1489627717356594
7423,0.7430347475648216,1.1479405707963768
6909,0.47321127806336993,1.0756633123774597
7415,0.4868013394584499,1.2094256536192605
1983,0.7799664749815846,2.10861031062587
7051,0.20782120183734454,0.3500456634875642
7060,0.2482681538782513,0.7050379895643285
7294,0.8955259671626707,2.056104960406079
5534,0.9995607963354594,2.424177573457889
3423,0.7798652549534714,1.6621822878951826
5452,0.3309609414647332,1.0545049227957892
7038,0.12629804289851987,0.7930468835779453
3703,0.9030280760720911,1.335692162614619
6027,1.0686672610740628,1.320068716580494
5918,0.7525823690898418,1.8592109145272762
7694,1.32251623062345,2.2155943846914505
6137,0.2632066881750241,0.9190896804496753
6344,0.5737284670855924,1.6516235474193959
7737,0.7529332009754296,2.627545576775268
6352,1.0601685577569635,1.641312786725046
5996,0.808452083454443,1.5207507232617576
5108,0.8274111758566812,2.226590827059001
7080,0.21240334460473936,0.4918871675259987
5763,0.7273974226385878,1.7240659739441793
6995,1.8996235988579502,2.2987384875199814
6495,0.3890830174490777,0.4972281249172758
7626,0.35723446856656826,1.6220474791038162
7207,0.43642795793198236,0.5879985085047161
5665,0.5645755050977111,1.616049984331232
6177,0.14243767586627504,0.24244241048286747
7397,0.18319393278570312,1.1227852328094632
5386,1.1171929059440848,2.029858673266522
7516,1.3494678195641316,1.4577293261161692
6722,0.9640291292116767,2.1282949553050403
6230,0.9200715409284264,2.1521208313195244
6872,0.8264294711126677,2.036131673938567
3284,0.13759067807572165,1.0027409188170509
7026,0.7061882541527991,1.2404032655416404
6717,1.060269049398764,1.8492361325076723
3537,0.45447863233579283,1.9590911184029984
6924,1.4491607134652522,2.4238563073386787
1884,0.5631436353188494,2.6166146390301384
6472,0.2718951683209894,0.4159007032692841
7932,0.35283639224836827,1.996621523801313
524,1.2290366012295566,1.9440096435722047
5152,0.3375744101565555,1.1576863061240277
5692,0.8112187031796505,1.5508517229945082
6701,1.094681993110812,2.027736546061819
43,0.3832198191498202,0.6946598601317546
5370,0.5559766838069727,1.4719346263778033
4205,0.537253747650506,1.7053496847554912
6131,0.3452178610226094,1.3353747713257489
6716,1.2198749959348614,1.8492361325076723
6737,0.1957379346952785,1.2876949892799723
5306,0.31536906081165283,0.44538100150515847
5564,0.684773198615713,1.2839776901895152
6937,1.552522750961807,1.881748124495816
6973,0.9487686615549724,1.543980074443597
7441,0.7543579620414795,1.129090490465993
5208,1.0148496078861058,2.165978088518684
7076,0.2170543666255157,0.4877560117491797
464,0.5611107164753419,0.907615731291441
7326,0.1394899387044796,1.0831704275195468
7461,0.5477392793733916,2.3840412436377103
1270,0.5438427195490542,1.679522308614947
6116,0.6244983382027689,1.3434553759815937
4682,0.942573564852688,1.678655023903155
2559,0.7919064379621465,1.2929396394053252
5510,0.9758869163211402,1.6856187559247853
7475,0.5768197394776283,1.4483086432538825
1034,1.2893187638661912,1.5863052466914649
240,1.4513770803176371,1.821032687899461
7459,0.6058898154756874,2.4037481954682622
7710,0.4537571652034878,1.5084701738988158
6680,1.3778596898819926,1.7811387007540294
1185,0.3257805404399597,0.7201140985554126
7586,0.8433960787538605,1.2697734651876587
5524,1.1478472258040426,1.9369799520860898
6905,0.5086113860820392,0.9318421271942015
28,0.2808868719063258,0.45370491220955156
7379,0.1559680936418363,0.8201375851596143
7278,1.075279962304408,1.2977704537120711
5688,0.6908023333625102,1.6349863236376299
3972,1.4065259467477195e-15,1.2397824381372349
3918,0.6784894622555717,2.0615790182171967
5765,0.9730712430050765,1.7895671736335204
7107,0.38248707596820786,1.6569614037156764
4680,0.6115793239686109,1.678655023903155
6814,0.20125911355751533,0.9028288622031401
6202,0.10863081591965157,0.9826841350007475
5588,0.7356092237563353,1.3798327423986896
7699,0.8152911588813143,1.2066997714808214
6628,0.3519092953234177,1.275637938926774
6731,0.5798967731041792,1.3463329816305913
6758,0.3345755942126939,0.6612483178023226
6026,1.0115320647835437,1.320068716580494
1724,1.000599222866888,2.0456963532017265
7211,0.5068508203788907,1.4376359121686495
6988,1.166086925146792,2.064679122909664
1972,1.3701211304101184,1.9686731789543737
7557,1.545460518333044,2.0478942623455785
6314,0.3544332687178025,0.9487076359356441
5159,0.535886258410024,1.2007492545114327
5968,0.7198219808502798,2.0586830886081118
5673,0.5765758591063477,1.7909073432239846
5786,0.7970858906744771,1.2307856967452686
1870,0.6385807231680597,2.1931776240866374
3969,0.9973013541602003,1.471370322926401
6275,0.8947599553931765,1.899843018752136
5125,1.0239531801135902,2.0246560181618722
6956,0.9305521167866725,0.0
4850,0.5495514513215806,0.9762210517780697
5691,0.9064427529884217,1.6308473439033366
7568,0.868044206068613,1.5804758460193267
5924,0.9776288064824883,1.8823568286424552
5687,1.2257956109006518,1.6349863236376299
5289,0.16745209431354283,0.4173582800256346
5069,0.4639380644626623,2.195431913758211
6107,0.9248737055279634,1.8109812460457706
5423,0.8991437235916878,1.9461950476865002
6589,1.063280010703838,1.5847017613946366
5895,0.5407908872107946,1.8316638415578075
1894,1.3732433384085987,1.855295695641226
7773,0.7059540890766385,1.8233636601519068
5262,0.5938062560191425,1.1908218485709814
5345,0.21773413031772887,0.8106393716411366
6836,0.9085613195690782,1.969845543187013
5774,0.9756425640448617,2.256997516946833
5635,0.8339022166013337,1.9069975413128453
5832,0.8731264761175034,1.5021064109705016
5110,0.8434327447474853,2.3164988216638664
5779,1.1224405389689247,1.2307856967452686
6535,0.9964157230715605,2.0737437299942485
5789,1.0831496096328477,1.5239194435193504
6139,0.3136504186596653,0.7090755795071788
216,1.6726313087504652,1.9837413742793855
7217,0.9793979909871386,1.527414318367261
7037,0.11870960958018358,0.8153493205311321
6580,0.48111950480633575,1.8090165188201388
4650,0.7501488287148732,1.6880618946159107
5288,0.17446633370430492,0.3509218845332379
1871,0.6244862646268398,2.1931776240866374
6156,0.23448650884012956,0.6713147824194943
5115,0.7772606033718181,2.3422422439232093
7170,0.37427111948708697,1.4856025282636536
6900,0.47340658968168653,0.9318421271942015
5857,0.6429024728617316,1.416027661366522
6019,0.5971844073399442,1.9036129441736938
2548,0.7648855759558719,1.7042895401972689
5387,0.8229254894177366,2.006008206908508
3282,0.1163847969298184,0.91595538673924
7389,0.2356571846576994,0.9382363475439632
7367,0.24283021655738524,0.41778845550743476
5511,1.0196033239464155,1.6721631705967328
6122,0.7051139829899452,1.513789561588776
7861,1.302993010301636,1.353746753637888
3315,0.9078695567649144,1.920490986009763
5683,1.0963379943509803,1.7661456724423843
7462,0.6942611475729674,2.4591074187933097
4839,1.306452289522682,1.5960997606470866
6443,0.10032467294494518,1.3775781439403705
5229,0.4855559946572886,1.6658098472225455
7366,0.2338747650126325,0.41778845550743476
5615,0.7671883619265613,1.9136320933139441
6621,0.3873243725544545,0.68553379049922
5827,1.0048321831593607,2.2859286485055432
6912,0.8842700544883194,1.1085459640708824
4395,0.36961595764824945,1.3088571415331065
6723,1.0144343551241028,1.736574652856066
6835,0.7872141864182972,1.969845543187013
5417,0.5135819657850826,1.9857831797007914
5902,0.651149320089401,1.6998264172616184
7077,0.14187970522755,0.4877560117491797
5286,0.22226153570878124,0.3509218845332379
5905,1.0498754280605773,1.6723582615330321
2095,0.15446666964886055,0.0
7083,0.20066922325438238,0.5217573263370716
32,0.3854922535782549,0.6272441469876271
6009,0.7933844198196299,1.6660802505178336
6820,0.22691398469013066,1.832975740021824
5549,0.4109332611492817,0.91098757802865
3965,0.9782782717129054,1.5508517229945162
6250,0.6533517730414461,1.7168542753041958
5237,0.9279142962721185,1.3467134728791124
6068,1.014425680862491,1.695469286879628
3610,0.812372232910392,1.2574261940248939
5582,0.5083315740394838,1.8785646714498077
1137,0.5433487534750939,1.6880584486988723
5989,0.892016535512705,1.600190591829753
6331,0.7116161546416363,1.8268544333111452
5111,0.689965863429779,2.3266244444233215
7979,0.781897374699032,1.4811885901493622
7048,0.22724293795593023,0.3500456634875642
7380,0.1296771388271213,0.9098381816374668
7408,0.6359703519218931,1.193235039802627
7196,0.28229380061882414,0.5778497937859569
6832,0.9426834017480016,2.037152353985476
1716,1.2686845720753794,2.2181580012188755
5974,0.9179652287528365,2.4677915450349923
6200,0.1278818101742853,0.9826841350007475
5294,0.23861939955145256,0.5578499211194283
6756,0.253801676777109,0.6120526047805734
5948,1.2091034719141,1.8239542176589556
1899,1.2192155209340494,1.3554889861748332
7682,0.6119709724890304,2.0171667014727177
7161,0.49098545522411424,0.933695000406399
4824,0.515483488641704,1.9341283909261975
4441,0.18296068064562696,0.37364458626602276
4294,0.8295363246848891,1.4265164044768708
2112,0.17605214313720963,0.8819952016535699
6462,0.3699699654868182,0.5979792899115718
6483,0.1364616861558042,0.3082966490761841
5801,0.8619002277112255,1.864141905131449
5240,0.9748840726991375,1.3467134728791124
5809,0.9831499589698259,1.7718470123160177
7120,0.1808839499222525,1.651796783614452
3954,0.6611840352016224,1.731311906513273
7548,1.6025650325010445,2.6132611509171157
7812,0.9890285397484772,1.4089657800222573
5233,0.9906578103880849,1.377996974203015
2912,1.3200687165804905,1.692107989455986
6444,0.11398879169505031,1.2619668935799364
3306,0.21499232865214038,2.0443922009811986
3009,0.3351990591159103,0.7350436313450233
7859,1.097279761232839,1.4561111519362684
5657,0.716594080523207,1.4047828901582706
5875,0.23211027503070553,0.5690244048639584
6714,1.3110110602126883,1.8492361325076723
6887,0.6947387981484392,1.6435613576991555
6149,0.29712783784080765,0.3732534915972545
5971,0.9744822166792219,2.200168000697582
6675,0.6523118854752464,1.5242523236851884
2823,0.23963441882176173,0.6827205246186221
7929,0.4945060635159401,2.1653548159273446
226,0.9295063225502896,1.9947975322764289
7553,1.6358774649027485,2.598582999710136
1882,0.8639228521115138,2.6166146390301384
1177,0.15250396694260995,1.4329046983243825
7725,0.5426581626703033,1.8997364634917653
5569,0.3757490378813602,0.7445303704103454
6229,0.9542051433515922,2.298232542907542
5555,0.3098688794183558,1.6349203055454562
7019,1.1927782400286766,1.707402928601737
6054,1.0459422052433338,1.693106481974191
7132,0.4551983595285406,1.3888487205082434
7791,1.1099742798579384,1.2785753146166186
7719,0.5233046142053935,1.7472577932427373
6377,1.0295296121845674,1.866342661079808
60,0.22352434084978912,0.3474929864031623
6645,1.0494827572694803,2.098846354830795
3985,1.07381175794664,1.615179839078684
7955,0.7063974773855959,2.236563981348481
1881,0.7317586983470885,2.6166146390301384
7466,1.6949994774177595,1.4590414180091944
5571,0.7526109026643306,0.7445303704103454
3606,0.5156636270469048,1.594892616631291
7411,0.4536868487859447,1.2094256536192605
5250,1.0517895456939512,1.2379136256669887
4304,0.7473959846716524,1.6477765537218558
7301,0.5789840341587447,2.651457265323719
6125,1.2341469845983102,1.4957675391067502
5538,1.4479485030493178,1.326413988902309
5936,0.9529516818617924,2.305492074142924
5831,1.0193753955050149,1.6184687226942227
5175,0.6779317046480632,1.9207543436595178
6704,0.6902315394749137,2.1078377316428725
3018,0.45626251774874677,2.5000799839956582
5704,1.2409112501634179,1.6344294227707379
5312,0.16441387220188627,0.3528399755182622
7149,1.2071875190219632,1.7656775216952838
6713,1.2828896126366898,1.8492361325076723
4814,0.7012796460618802,1.4149143627557759
7444,0.5073137559296141,1.1307986349055903
2494,1.3246864192340373,2.176256828473375
7013,1.2803687993289605,1.9113456174344916
4816,0.6684260203465141,1.2629496989410842
2501,1.1109949350202284,1.5086692426804522
6189,0.22500579757699632,0.45370348939648436
5839,0.19714120041459088,1.3914120656415925
7801,0.6841119308309704,1.0942211391086092
5773,0.663360100461827,2.256997516946833
1672,0.7244549763187171,1.7253779299077876
4398,0.13653328798151196,1.3026239609413668
7467,1.6666666666666636,1.4388018222324541
7395,0.2901906094787003,0.9454301089374116
5310,0.2131097505174356,0.3573410191846565
5621,0.7724992273619418,1.8256184615621496
5322,0.34600902226289737,0.4147003871907082
5834,0.8528424622389358,1.5021064109705016
6059,1.0893646784107922,1.6512125418126795
3975,0.922801917945456,1.2397824381372349
5215,1.475582673529296,1.7250422416487996
5341,0.2167770532434418,0.7279369511319425
2491,0.7887243557378002,2.176256828473375
6899,0.4748404265188837,0.9354781770669276
5904,0.931292227145663,1.6723582615330321
6269,0.4813844725754698,1.3747926557900882
6878,0.8430335368007132,2.0073773257232483
1671,0.8457361314282664,1.4402271625856238
5157,0.5851554588374449,1.1920028758852261
7588,0.5528991480667604,1.0321180703042732
5267,1.0524814051690692,1.1908218485709814
6849,0.7346192132373022,1.269163237344193
7365,0.21227611465371782,0.41778845550743476
6135,0.24434953177661867,1.2241645927438842
3021,0.9485209081801853,2.468470483219682
7532,1.2219900951484575,1.9713699491850363
5922,1.3264983432059645,1.8857531823490685
6015,0.7648591620007921,1.743958950987135
6357,1.11736910705479,1.641312786725046
5065,0.30324173845080304,2.262662409886751
7804,0.43337793115424705,1.616912137430171
7760,0.7998808043592628,2.0767020567238745
2927,0.9100315103865803,1.274650753476437
215,1.470614084511366,2.1406522536912043
1997,1.4529082100775699,1.8178023019640606
3017,0.2744958774539842,2.468470483219682
6439,0.16215497443040058,1.3064093762510751
50,0.18281966671285207,0.33640156017328815
5553,0.2156320752392986,1.559879872161581
5384,0.5548286718796924,2.111781448763459
3538,0.4802753326322791,1.9590911184029984
7971,1.0066333787752257,1.4176647906781643
5066,0.38122757987051326,2.262662409886751
39,0.23825000441300836,0.6771721459888241
5882,0.14902855490546285,1.5344440859262916
1078,0.47086880577420415,1.936982251606626
4833,0.9307071911732386,2.4154881965646813
6410,0.6486967455026545,1.74562507336732
7421,0.8765508575663145,1.1479405707963768
6165,0.2303454138185476,0.7944353062534533
7434,0.5894486580023581,1.4232289563518883
3607,0.5083384902249446,1.594892616631291
6598,1.1629418473458624,1.9780707009117033
5636,0.7774275493859829,1.9069975413128453
5677,0.4675316012061525,2.231859351248453
6214,0.2004257449443277,0.7056902707371027
4446,0.21078932433738098,0.37364458626602276
5646,1.062672482142363,1.9836062936012817
5771,0.8568732412518768,2.3630450389339264
4852,0.34107851671043576,0.9082024577382254
30,0.17759347745616821,0.5512999913578601
6264,0.5139315879508899,1.258997759291806
5245,1.0602690493987645,1.7473766791720937
4199,0.9647529295566583,1.8012334765215416
7404,0.4947824822058919,0.9454301089374116
7111,0.8814624908154706,1.328831905217807
2881,1.1628853800566397,1.6127140689923494
5556,0.3666582520808344,1.6474394166468282
5307,0.2926290394972137,0.40121930029369257
6696,0.8739331243264351,1.950733382392641
231,1.1506601961684273,2.016919189106106
6885,0.7156361880855447,1.7898317090268159
7754,0.8708774231631737,1.6976969278354748
3951,0.8451542547285174,1.9395109996174975
3968,1.0048321831593612,1.5508517229945162
5616,0.7987871238481464,1.9136320933139441
6118,0.40885630945627016,1.513789561588776
6615,0.38488056923004454,0.6779105919812982
7519,0.7347966616602266,1.6622795982079095
4448,0.14243767586627504,0.37810830355144603
2924,1.0687284565749364,1.274650753476437
6864,0.4766947910623629,1.162340843849767
5780,1.062668663976819,1.2307856967452686
4430,0.19994345216674894,0.4382834291116475
5945,0.7265272520539273,2.1029647495904706
7543,0.9365001965987767,2.5895882330534175
6746,0.5108839255528812,0.5485083437476522
7317,0.6000845455263312,1.2055594898254518
1327,0.628967061658064,1.2260772225110173
7482,0.5651353177066182,1.8531238244339718
7603,0.29891413696008073,1.374971340628409
5541,1.2187917847643457,1.0917520251239758
6057,1.0823806976216273,1.6512125418126795
6227,0.4850816258341488,2.298232542907542
6234,0.7310568201887228,2.0397480696860653
7451,0.5349764810225729,1.3618866015332936
6608,0.6430877054774801,0.9311037763641726
5176,0.7175889745552577,2.0224372161774906
5367,0.8592226174146768,1.7866310852303495
2696,0.41198474720890516,0.444493975474298
7505,0.4900545296697284,1.975573312497308
532,0.5737284670855924,2.030484572038319
2272,1.636248617448657,1.6721631705967541
6537,0.9118130817569977,2.001316671855242
1925,0.6323583419582666,1.5199411622171255
5143,0.3760106740231841,0.7713793362696445
7164,0.2639673154187421,1.3507461475616027
230,1.2936440160611802,2.016919189106106
5406,0.45667574846671094,1.814607318044214
7315,0.8412407857006048,1.2055594898254518
6055,1.151203096229698,1.683730861466419
6857,0.6736706991849157,0.9768681276654968
6854,0.8086562028480552,1.091661408562913
7565,0.7520655911301093,1.5627031091522539
7792,0.8125103304443204,1.2785753146166186
6294,1.0923574799609264,1.5556319961357867
6158,0.3016326846577913,0.7522108412802891
5158,0.7603776036514416,1.2007492545114327
3786,0.16785320355112834,1.3961429651886188
7446,0.37375343595096694,1.1307986349055903
7409,0.34285827347952375,1.193235039802627
7449,0.5630335685125418,1.3001706090101546
7127,0.6932038148282107,1.6368295924042122
7556,1.6663103106786086,2.598582999710136
5908,0.8626599906897977,1.8556004182758579
6176,0.12226537165972717,0.24244241048286747
6650,0.9506938804798662,2.098846354830795
4851,0.33719225215810006,0.9082024577382254
6206,0.09989902535236989,0.9182812577091705
1330,0.5819321567445667,1.0964194496795616
3307,0.26325717911249213,2.0443922009811986
7096,0.10481957342979283,0.79903702567733
6039,1.2565827003871894,1.9563788898731824
5675,0.4872759721670015,2.114347752562009
7084,0.2204557028615792,0.5239689293071002
5836,0.5394605897142349,1.5021064109705016
5352,0.22693315905760952,1.703116255797171
1718,0.9176606764725226,2.06420865550006
6050,0.9741594934387883,1.8710536529757478
7412,0.44959675904081337,1.372378501710362
6962,0.9124226831452648,0.0
6382,0.7599364085422249,1.9597237292995047
7518,0.4085063511766784,1.4577293261161692
5221,0.892016535512705,1.7225704071675938
7424,0.4449017574394487,1.1798485623450514
7140,0.5967996655534178,1.3236901479071985
7784,1.241296928814875,1.2785753146166186
6328,0.6804407341032697,1.642615785763537
7503,0.4798141529816077,1.8748847787837468
6546,0.7002473044753555,2.181832922670788
7383,0.11186410751536961,1.1819318327548902
6237,0.704644842583809,2.1521208313195244
5893,1.6622375061032069,1.9347245894938419
1888,0.7529332009754296,2.643501614919291
1420,0.8111071056538125,1.9549272078034863
4209,0.6480522298215152,1.7001706945227855
1074,0.7671883619265613,1.7243858098328435
7780,1.1583771639850236,2.0766542210618546
6505,0.18011996095922211,1.0716338465546682
1708,1.6913858253908376,2.2404819052274996
7419,1.02950498249857,1.1479405707963768
1082,0.8510526049326246,1.7521518808578238
467,0.26067191044877774,0.7346287587321775
6788,0.49192412787508444,0.4055601714507878
2623,1.288505058124239,1.1552604600890182
5513,0.7708354902139285,1.5684177206241694
4688,0.5499020673742426,1.4544699121493252
7422,0.7340137768224169,1.1479405707963768
7673,1.1421237464055831,1.8847653903353028
5413,0.515515107660663,1.9857831797007914
6043,1.3304230781241977,1.8572596177098828
5757,1.092461864826081,1.6593458412377706
2502,0.8918141773618501,1.2402444843714073
7686,0.5644602454690199,2.4843700170912677
6166,0.33499390949458496,0.7920769564001667
6817,0.20830402116039828,1.447364477979849
6407,1.2312365532925935,1.799989422510646
6296,0.823042201268976,1.5556319961357867
529,1.2695108755150943,2.030484572038319
5457,0.40185844960663347,1.0545049227957892
4432,0.27650026152280166,0.5036046104151701
6365,1.3618375782722314,2.018578096597986
3096,0.4830221160628036,0.8342155196944284
5783,1.0294990674223103,1.2307856967452686
7786,0.8151506011756124,1.2785753146166186
2006,0.5971844073399442,1.8616580997636267
7079,0.2418830670825192,0.4877560117491797
5353,0.20167792682325358,1.828139947891814
6180,0.10656109835377908,0.25496245577304355
7452,0.5341772426882966,1.3618866015332936
4204,0.7282595514290213,1.8264346109690095
1717,0.8278070618688625,2.06420865550006
7165,0.24181323619473954,1.3507461475616027
7934,0.8564042630991294,1.996621523801313
7334,0.4983006447030404,0.7341864626924431
6890,0.6050970125200855,1.225430493481714
474,0.2546341960962874,0.7503736573385262
5577,0.16312289692047557,2.0097760658340134
5339,0.19063918163201357,0.7279369511319425
5173,1.0509676237120809,1.9207543436595178
2877,0.6686143658325178,1.6127140689923494
7167,0.9340541222508386,1.4856025282636536
6300,0.967196240450818,1.2417298855533525
4831,0.8838546755530258,2.4154881965646813
5601,0.597538155702054,1.6764252241764963
7377,0.20330030294090157,0.5087147121928818
6046,0.8973326366809387,1.8572596177098828
1328,0.622848343541206,1.2147542556083026
2933,0.22479700346085177,1.2351098690869888
6513,0.1914767785850394,0.9396679733279821
5854,0.42930956625792055,1.416027661366522
7432,0.4900841141029674,1.4855042300531065
6743,0.21234926086519454,0.6111489589053338
6398,0.6194062989683021,2.368826103380378
7119,0.1638754632252624,1.6368295924042122
7206,0.43901464285260017,0.5879985085047161
1868,0.9325048082403122,2.1931776240866374
7166,0.5326534135289085,1.4616367311560274
7064,0.28602591397191024,0.7914585950474776
6929,1.5254360487089544,2.523990490934381
6035,0.8856148855400958,2.2636405515044147
5632,1.0692299027332124,1.9069975413128453
6705,0.671400635956633,2.1466084318535117
3014,0.24214163574618736,1.7655504887246032
6106,0.951641221747567,1.9644426527956758
5586,0.5081549586578371,1.3798327423986896
4403,0.16642534951412996,0.5705506899285111
7602,0.27943873468761854,1.2528414334831341
1418,1.0867537466156634,1.8321181109888152
5641,0.9790013192049098,2.1045809279887226
6242,0.7442367186823475,2.1920896862252555
6030,0.7878732099784982,1.320068716580494
7612,0.583613159428839,0.9607343111041072
2552,0.7071523089842275,1.514205733958648
7340,0.37789613047777443,0.5429569824616445
6193,0.28895536998590526,0.47514332018533906
6012,1.0206207261596565,1.743958950987135
7128,0.4728433082835994,1.6349764513874927
5997,0.6553918942659279,1.5207507232617576
7591,0.6000845455263312,0.6008404824177043
5552,0.23202611388280983,1.3047725408467545
4646,0.6757457582921298,1.7217986109438543
3774,0.9919824941037904,1.7119215653966584
5965,0.787258000615622,1.9543039044651482
7481,0.6774225050521407,1.8531238244339718
5519,0.7969211184069066,1.5684177206241694
5210,0.9085613195690789,2.2454335742654252
7733,0.6775620789868849,2.2719473645687023
5421,0.9320953437417184,2.0157231188302767
7622,0.28405862684493394,1.4454925570944681
5909,0.8933173790724914,1.6197589630883291
4687,0.9728266602619637,1.4544699121493252
7672,0.6482534432239256,1.8847653903353028
5179,1.078693452867409,2.0350601119656377
7944,0.712278679006223,1.4185306613923865
2497,1.5419258234085926,1.971675853376223
1897,1.6396635655185172,1.4220409878396238
7319,0.4086259936872381,1.441863060109486
5374,0.6621812673060348,1.3711760143769418
2619,1.16405492283648,1.1552604600890182
7271,0.8670623389849363,1.2977704537120711
6052,1.0564085680892372,1.8710536529757478
5205,0.8944109592448596,2.1318738580706875
5016,0.44747572351923715,0.5738894051013773
6843,0.6117349675673578,1.5210694802210287
6351,1.0248165114810863,1.6177015472053875
5378,0.7348893617724722,1.3711760143769418
7272,1.0972383249309263,1.2977704537120711
5843,0.13135130829057542,1.3110767606777798
2824,0.28404073961438847,0.6935219728436995
5350,0.22082334037743007,1.3155831409799204
5184,1.497020102402456,1.6348257800632429
6076,1.2628188483365699,1.4547531130471034
6891,0.6939036022307612,1.1615739599656818
6573,0.8311463510818015,1.405995000279083
2091,0.16030180242763703,0.24019142142038616
5767,0.793192678142795,2.0231460385725604
4404,0.17230418999888242,0.5705506899285111
5835,0.696949457048256,1.5021064109705016
6179,0.09564832280716293,0.2490137021180479
6097,1.2102374757455445,2.2493648844329543
6151,0.20096485685882448,0.3732534915972545
7410,0.4996494350474575,1.2094256536192605
7652,0.771306547140688,1.593836851283196
6186,0.20700470948818453,0.26114312826123415
7807,0.8598014174364021,1.4089657800222573
6803,0.1725601987399796,1.022239649064902
6360,1.110467317690079,1.681022794371811
6690,1.267748716268276,2.0048618480625167
5224,0.8347938137427282,1.8362200419688608
7302,0.6269756952351804,2.641744519694736
6305,0.6837463521542162,1.0454921165434345
7524,0.8157418285337433,1.6622795982079095
5414,0.7069850811072991,1.9857831797007914
7863,1.3959121002042083,1.353746753637888
7479,0.5515646194575323,1.7719494528989368
6005,0.85139300946248,1.6660802505178336
7494,1.4536731127226235,1.8895254746576882
7154,0.8176209436115658,0.933695000406399
6470,0.1810240718144668,0.594160003127888
5203,0.774199889984699,1.8626204639801025
5931,0.8057632952137126,2.025137414503543
6997,1.2745231220948072,2.2987384875199814
5014,0.3155247764386109,0.6469406444042793
7538,0.9430672262818013,1.950085704790929
7090,0.2925431711395857,0.5239689293071002
5394,0.46469682393832207,1.3691677654554701
4434,0.3710365378398289,0.5036046104151701
4300,0.9839408683976204,1.426516404476863
6251,0.4609061884593454,1.7168542753041958
5263,1.1860088684666812,1.1908218485709814
7787,0.7170823381133767,1.2785753146166186
5625,0.722787639208965,1.8256184615621496
5150,0.38090191825153646,1.0581644894283313
6778,0.22877752466025184,0.44320520973751715
7506,0.35065579516837697,1.975573312497308
7775,0.8333061274555477,2.1927768129789174
3097,0.3874251788102696,0.8342155196944284
7778,1.0440497359904275,2.1927768129789174
7967,1.099810063157801,1.4176647906781643
6420,0.7828268571968325,1.8939018546320214
2631,1.4085992442510216,1.2351643788333833
5680,0.8273526653587265,2.1277513102535393
5251,0.8687990607849585,1.2379136256669887
5906,1.1266584767336543,1.761639965836625
7539,0.6128632730634102,1.950085704790929
6254,0.52790721327874,1.8628003436063003
5689,1.078917995645155,1.6349863236376299
7621,0.2930457045086614,1.4824629910204243
7772,0.6627735792885822,1.8106066880161962
7343,0.23920074320639922,0.5429569824616445
6666,0.6316039002598514,1.1991172430596635
5999,0.6947387981484392,1.635717014583966
6667,0.4995354568814362,1.1991172430596635
6946,1.2905080624453937,2.0127119028961666
6620,0.3055249218169323,0.68553379049922
6394,0.9324383084490419,2.257419653444408
5528,0.8549341219474847,2.3531994140471264
5119,0.9822818858112949,2.3422422439232093
7724,0.5159833467103894,1.8997364634917653
5194,1.2133879493355373,1.8336284748677802
6138,0.29176864138271846,0.7217373984078476
6067,1.0517895456939512,1.8950366438163717
6576,0.8181143195771772,1.405995000279083
1987,1.3495597386775946,2.10861031062587
5517,0.7857456178334569,1.5684177206241694
1891,0.8255407797111893,2.3632194407239537
7665,0.8631331635194833,1.2209597441706117
4674,1.4979655179955753,1.713465154093136
1026,0.5645755050977111,2.074268758260869
6313,0.25507007026902573,0.9129241639006584
5320,0.22180036468277922,0.3780357177359755
4155,0.15295661619262851,0.6605435448284867
6957,0.960708113029785,0.0
904,0.33633030636384703,0.4695508105705914
4573,0.42424691777514717,1.193329091403614
2102,0.15190349962607774,0.0
6917,0.581138947939797,1.1577816137050994
7527,0.7064510561952456,1.9447915122802781
466,0.40117499639944576,0.808767243832151
7345,0.25176286717354057,0.5783020479286717
5841,0.1270622087671316,1.3914120656415925
6103,1.079817901069096,2.423261980287104
6536,0.7107691938012127,2.0688917651081273
6006,0.8372513991297105,1.7367132812352244
1904,0.8935861516491186,1.3216325213747362
6829,1.2798255816093613,2.0369575376953093
5772,0.8592805402535564,2.314937720663944
7679,0.6428682101029902,2.0171667014727177
7721,0.9255634754437589,1.8997364634917653
7799,0.8922154871995246,1.0942211391086092
51,0.20790363485618335,0.32196555332291754
6733,0.1905479524866507,1.2839666104373286
5819,0.9851247393218108,1.8241329779448765
6223,0.3897384692091352,2.2344209559581962
5803,0.7052232941357648,2.078297642324698
2550,1.0715382242769411,1.610590842975501
5171,1.0022412653461794,1.9207543436595178
7270,0.8592226174146764,1.3888644140166688
6260,0.8150360595981272,1.258997759291806
4924,0.7731651157081258,1.6349808823771121
6147,0.2547847560410244,0.3732534915972545
4160,0.0999292188668885,1.0457078675556255
7384,0.13737073671489963,1.1687481769805892
5248,0.8001776137614293,1.4540462888251162
6747,0.31751795720129355,0.5485083437476522
6379,1.1591101661891063,1.946411983691174
3789,0.27332288387541587,1.3961429651886188
6399,1.194772605627975,2.4014281698249738
3012,0.2653533623895305,1.341932925527806
7632,0.6080756599071975,1.7965139924189975
2001,1.1470786693528083,1.682994451385932
4423,0.2729257816590755,0.4382834291116475
5347,0.16531460413637625,0.9550335249537597
6150,0.2239882662385079,0.3732534915972545
5068,0.5933595374687102,2.195431913758211
2109,0.27262672487427025,0.4422211550194289
4310,1.0764659344625387,1.7425356457159509
2627,0.6609032742486133,1.3438772035053792
6281,0.5903207013855442,1.9255151268650417
7303,1.0307802993759325,2.632145121125299
6931,1.596168481451552,2.408967033646071
7454,0.6966467064944295,1.4438670200086077
4212,0.4809955673819384,1.5084860745002169
6387,0.9828842250512907,1.9958861131532397
7918,0.10876451593486895,0.5391159923124261
7344,0.25110175881110686,0.5507018264475114
5180,1.0038602189887034,2.1416002735806146
7192,0.4917110422186399,0.5256042627219664
6031,0.7878732099784981,1.320068716580494
5505,0.8421045781399219,1.909866039591006
6955,1.1650553613280958,0.0
5798,0.8024295777896389,1.5239194435193504
6588,0.845154254728516,1.5847017613946366
6355,0.8870785789388681,1.641312786725046
1027,0.8050346148769694,2.057956358293369
5411,0.5850989209644286,2.1036398921017585
54,0.1712345844993377,0.32619255220782006
341,0.3379330814386103,0.48441881960666644
5364,0.8585372956072843,1.9268711380705983
6034,0.6901150602044158,2.2096843622703397
5964,0.6604033442689624,1.927163988835977
4685,0.6868673601357207,1.4544699121493252
6606,0.904982024462816,1.1776392636989237
5979,1.4411446777184638,2.1757963260945146
3923,0.9078630146099954,2.081508926327391
5606,0.8595346423496423,1.6258152964816157
6388,1.0362969323010676,2.0009850882799443
7114,0.893649408814137,1.328831905217807
6481,0.17120401918970415,0.3082966490761841
3986,1.1381923774406033,1.615179839078684
234,1.413161015429816,2.1695565540266197
7734,0.8272453447289572,2.5741371295546904
5633,1.3147239070785206,1.9069975413128453
6232,1.042010247005589,2.0397480696860653
6337,0.8152081496591432,1.9651609617878338
6662,0.7241459650169417,1.328793294272254
5305,0.33315607588109414,0.483434735053694
7044,0.29558504719484757,0.39221649899766
5943,1.0502375335668586,2.3747543448186406
2110,0.20820891004637526,0.6141103240264238
7440,0.7021701319867232,1.129090490465993
5290,0.1272992576185748,0.4524212873475648
3611,0.7412276550732652,1.1678584983670515
1973,1.698415551216894,1.9686731789543737
6987,1.0474427836540836,2.064679122909664
7978,0.6142469009834192,1.4811885901493622
6160,0.26616987954822524,0.7522108412802891
1266,1.124765230949295,1.6046975549035647
1908,0.9595930899102135,1.455306698808441
6824,0.5118297379149529,2.0369575376953093
7081,0.23921689712142485,0.5217573263370716
7498,0.9267453828424154,1.8243608699681777
6297,0.7036528912783833,1.499019630549885
3839,0.3400323547875715,0.44490411040285177
6427,1.0096117628169925,2.1600605852195036
7059,0.21659808821731813,0.7050379895643285
5181,1.0581178006419432,2.016952206051113
5153,0.49425969899948347,1.1630789195376896
7450,0.5181260048515359,1.3587745074036806
7053,0.14909748348232993,0.40325282286579756
5348,0.20580023704988687,1.0221567949868011
7692,0.8271593798287769,2.2155943846914505
6592,0.8186982228511038,1.5847017613946366
5427,0.8448595489173428,1.591524917544751
5955,0.6148260564364049,1.6063305154209377
38,0.3630820099026487,0.6771721459888241
7523,1.033072229851791,1.6622795982079095
45,0.27420691670086733,0.33640156017328815
6784,0.16687276416739225,0.40475261630611836
6479,0.17120391175934346,0.3082966490761841
5784,1.2475628388430224,1.2307856967452686
7262,0.5824386281729438,1.7725371654274347
3305,0.1974329150493236,1.8921569701455285
6372,0.9474547817925005,1.9292230568012152
5939,0.7332423720992788,2.5750198893260716
5611,0.8197412347743602,1.6258152964816157
7056,0.22465013290279345,0.6434815326149019
7055,0.18774361992216482,0.47794442820078775
4150,0.5007778345704736,0.40174001105647394
4207,0.7007674572089609,1.686506713608677
6415,0.7294201597732164,1.8118232991408905
5315,0.16128211852867053,0.3528399755182622
7457,0.7867284128112629,1.7694956600352347
376,0.09989902535236989,0.9803675370628747
5656,0.7097576260467702,1.4047828901582706
6560,1.0574436470780286,1.6878043330994852
4821,0.52790721327874,1.4149143627557759
7275,1.0109835434260288,1.2977704537120711
6882,1.0259783520851549,1.8836017280088284
7160,0.5836747154731667,0.8222907672641796
6061,1.1336074970636922,1.6512125418126795
6434,1.3401793980353767,1.4014075189880917
5428,0.7701151427308065,1.5464706768726564
6302,0.7807744960209814,1.185072223991303
1878,0.7600457496014982,2.566324809586001
6771,0.308640665370137,0.5642325002569133
55,0.18368499202973138,0.3474929864031623
7027,0.937756967785424,1.2404032655416404
2106,0.5147389297210077,0.0
7133,0.47229412190818154,1.243703393779823
1896,1.442368396901147,1.5641864054255028
6993,1.3988742123914846,2.2987384875199814
6947,1.2905080624453937,1.9084737999993229
3027,1.3964699031741126,2.215973802346518
7363,0.20596308008156972,0.41778845550743476
5760,0.7501488287148732,1.6593458412377706
7485,0.552534046768306,1.9302222923339931
1419,0.7979661845474001,1.9039158577980102
6172,0.2335348250296997,0.2862084634296137
5703,0.9369870138054002,1.6344294227707379
7642,0.8771954681152243,1.869956586538738
3612,0.898414365592216,1.165479743558274
1691,0.8906445814261306,1.5494429656960198
6241,0.6108729554615104,2.0397480696860653
3536,0.2537266896929253,1.9590911184029984
5788,0.4887960962175053,1.5634046144718614
5855,0.3864085041138535,1.4896630787342207
6209,0.14355199831756724,0.6590284208500192
6779,0.1632234507479596,0.44320520973751715
7284,0.8961831754439243,1.717448753763335
1021,0.6366254270225803,2.491901575066609
5246,1.1842985414792424,1.7866447272332098
4438,0.11742796290975095,0.3816115317717916
7616,0.43901464285260017,0.7681986516374365
1178,0.11395610023994665,1.4329046983243825
7703,0.8197631148075352,1.2066997714808214
7021,0.9148265698557224,1.5716575598650622
2931,0.192748546595815,1.2126361754119448
4427,0.21377191180196195,0.4382834291116475
4844,0.6687718719840774,1.5236941693235464
4813,0.6637976699448809,1.4149143627557759
4303,0.940260122305465,1.426516404476863
1715,1.1462171811126194,2.2181580012188755
3980,0.8828548807306078,1.2397824381372349
6619,0.31240959808683383,0.6779105919812982
7333,0.27338426314990755,0.7740705800118336
5357,0.45626251774874677,2.018825996976408
6411,0.5304308844131281,1.74562507336732
3294,0.1952289337884219,0.7079518829958562
6032,0.7303625567541749,1.320068716580494
6385,0.9985277214718519,1.7305935080036465
6533,0.5697575501913412,2.205736938145087
2690,0.15580677354249442,0.397501680369681
7499,1.0301215368236434,1.8243608699681777
2634,0.6639087726380142,1.1735351980572837
7547,1.3135068986468301,2.6132611509171157
7941,0.5499020673742426,1.4185306613923865
1180,0.19277606468564673,1.4329046983243825
6406,1.3377787504288619,1.8118232991408905
5864,0.37427111948708697,0.9978241235305514
242,1.2385030631019376,1.7175597419530024
7157,0.6663375657216498,0.8222907672641796
7531,1.5450352895800037,2.1099617844429512
7921,0.24132671204979128,0.6680318237923671
7680,0.7264777851135075,2.0171667014727177
6033,0.4470046924273124,1.5128699706817563
5858,0.8526431383891403,1.416027661366522
4818,0.5200753256789229,1.2629496989410842
6879,0.881497035879233,2.0073773257232483
7585,1.0056490325890386,1.2697734651876587
6953,1.2984487398350428,0.0
7322,0.13910105699877603,1.2093308927425352
6473,0.2696434884687916,0.34875695420616265
7767,0.7809727585683404,1.5780110146225326
6423,1.2397649042283223,1.8939018546320214
4162,0.11999024145321394,1.0455621421187065
7011,1.473933135642447,1.9113456174344916
7688,0.9694415458961532,2.203163552594547
5340,0.20740830652771966,0.7279369511319425
7766,0.7063974773855959,1.5780110146225326
7617,0.43642795793198236,0.7681986516374365
7684,0.9156788181332357,2.4843700170912677
7042,0.14853748500948732,0.5418963179662848
5598,0.6659680453820448,1.6764252241764963
5829,0.9868841035401459,1.7139315000066966
6556,0.6787747457716472,1.7365086410985906
5596,0.7813280077631263,1.8213840767156375
5785,1.1149563831131901,1.2307856967452686
5768,1.0936354981452192,2.1048787127226536
469,0.48814914189710334,0.6917113331450949
6673,0.5524910256910432,1.5242523236851884
1999,1.1488675660464094,1.8178023019640606
6624,0.43129959602118423,1.0055763721909177
6638,0.6737464008970854,1.8365584044205439
1993,1.6367253663479955,1.8595987730975863
7593,0.7524923033522555,0.6008404824177043
4845,0.6067293226952448,1.510466090022411
5418,0.6366254270225845,1.9857831797007914
7728,0.9256939571841393,2.2719473645687023
7655,1.1688028865047149,1.6437299230539681
6298,0.7375840863656256,1.4699124412840396
5368,0.6220195891629178,1.7767753734834186
6984,1.615561006818674,2.064679122909664
5799,0.9509371746203692,1.5298687138195355
908,0.2004665413865846,0.4536001578858495
6614,0.36414139775358045,0.6779105919812982
5963,0.5674155918439188,1.8040431973709934
4811,0.7031009021271983,1.5766466495159412
2101,0.1278676532475236,0.0
5328,0.10248313244636126,0.6345861526029447
5432,0.8386160441770213,1.5022337322341652
6791,0.2933178593114499,0.4055601714507878
7300,0.8281892768959751,2.651457265323719
7136,0.33421257352299677,1.2828638651100772
5334,0.13283127715864101,0.9276159572174281
7068,0.45783216699564483,0.5788269534166154
7089,0.423365320493963,0.5239689293071002
6429,1.147793072210392,2.1332695975503846
5921,1.4643248765586594,1.9615420344572152
5972,0.9690616586129145,2.349206855816404
2546,0.7618699459255724,2.0396250720957534
5941,0.6729181095333441,2.532770665077434
6550,0.5254824947397944,1.9571562064985562
6020,0.7753246322703697,1.8301350813244706
6187,0.20208052234860344,0.2980856504135638
7180,0.9557045247215497,0.6231582533454363
1723,0.7989817433950771,2.0456963532017265
5800,1.0590241965287504,1.7944209581234873
1023,1.0003848978099064,2.7245985189654403
6694,1.2062770843050519,2.0049203601327283
7458,0.7277273143534898,2.229418892597812
2632,1.607332014252846,1.1735351980572837
6697,1.1156616257877117,1.950733382392641
6161,0.21406278620501493,0.7522108412802891
6457,0.2497671459061632,0.4075566332088904
7726,0.7053368679008822,1.932010784759079
1722,0.798981743395077,2.0456963532017265
6922,0.613514452742272,1.930842594714999
2100,0.13165775424731443,0.0
5506,0.7475090494269783,1.8885501831042486
5557,0.4495670937251801,1.6604222175266168
7204,0.7556752592189895,0.5879985085047161
7197,0.35039251692919643,1.0720963697035424
27,0.35730832523067285,0.4353810812986644
7336,0.3638428276031626,0.5508013002532024
6047,1.0459465375049661,1.8572596177098828
5953,0.8213505442078901,1.6179615350846484
1172,1.1203540608758356,1.6001457664385432
7742,1.02107826508623,1.3369160739722847
6969,0.8350834376635693,1.3077173580306312
6815,0.18610158064071997,1.0125566221982074
5130,0.9957735568847571,1.2502891943018881
6373,0.9757792865091,1.946411983691174
7750,0.9137953800738775,1.3244474509561575
7215,1.263023511827835,1.527414318367261
6266,0.4694731508457529,1.3389810111722078
2874,0.9347665558177441,1.6127140689923494
3285,0.11600574750540422,1.054661427077224
7342,0.17279627433252845,0.5429569824616445
4676,1.3397761688729697,1.678655023903155
7010,1.5376022702144578,1.9113456174344916
5300,0.13488760503395425,0.5582592838750119
7159,0.6073533285688051,0.8222907672641796
1326,0.5510978089197432,1.2549582328458138
7536,1.223563651627985,1.950085704790929
6386,0.6662641509066265,1.9597237292995047
6787,0.3248212900624357,0.4055601714507878
6755,0.36230818869666465,0.6022910662602392
5217,1.0227410575005091,1.7250422416487996
7739,0.7525713426910579,2.0756140484041468
7653,0.854040207856578,1.6437299230539681
5416,0.5435168818064123,1.9857831797007914
2923,0.8592226174146766,1.274650753476437
5907,0.8859972117559111,1.8556004182758579
6866,0.5463282675736764,1.3477281406252455
5957,0.31359384538795504,1.6179615350846484
4298,1.0557896921066625,1.3893791357968424
2113,0.1564082087496443,0.9511201849052398
7121,0.275062284307687,1.6744599331834753
6343,0.9344195745340185,1.6516235474193959
6524,0.2903412335710134,1.1509512147784133
6522,0.21577872767632297,0.9396679733279821
2092,0.1700136748426207,0.2354830406031431
7589,0.56257075602484,1.0321180703042732
5810,0.8587712310168371,1.7718470123160177
1181,0.21365472033876856,1.1496066540324947
5343,0.22686760248461477,0.7279369511319425
6528,0.29299900230261594,2.233928403294772
3833,0.6057937633962848,0.4652791775374321
5695,1.0144256808624905,1.5586109666051091
5407,0.5238195953119616,1.901198187236952
4578,1.0264353511263251,1.5843276468301604
1876,0.6248531317803263,2.566324809586001
5351,0.2196057740687761,1.4641523925444264
7931,0.26124690512710524,2.1466084318535628
6693,0.6349750337709451,2.0048618480625167
2007,0.7753246322703697,1.8616580997636267
5502,0.7985340699285863,1.9184005805579007
5121,1.3236461818739438,2.3583348931960764
3946,1.1433239009500593,1.6277123994386045
5619,0.7435736056441355,1.8353641749867917
2876,0.9427331661897441,1.6127140689923494
5951,0.8922197730194151,1.6773756124263552
4297,1.3599011645321304,1.3893791357968424
7023,1.05157547213763,1.2404032655416404
5894,1.4059049495734899,1.883837284965319
5613,0.6779317046480632,1.85210168890276
7169,0.5394942065709832,1.4856025282636536
5652,0.6000369184427267,1.6622413444945898
6233,0.7869260268398404,2.0397480696860653
4689,0.9078695567649144,1.4544699121493252
5815,0.8383528049017341,1.7718470123160177
6134,0.20803132751302117,1.2241645927438842
5881,0.17315721047471186,1.3248624232190231
6515,0.18235239999178363,0.8498229926490448
910,0.13488760503395425,0.4663363334975773
4649,0.7910513717740066,1.7213931973621615
6646,1.0101525445522108,2.098846354830795
6785,0.2132510879379213,0.4055601714507878
7388,0.1946377886970832,0.9382363475439632
6024,1.0579448744258269,1.320068716580494
5849,0.21234926086519454,1.277179910355972
7378,0.1541939007051798,0.5087147121928818
5067,0.469027470859778,2.0970176365320845
5750,0.9527720630395357,2.0361673934255524
5390,0.9313684485030781,1.38793904166974
7634,0.4611924648380618,1.869956586538738
7727,0.8477439267035476,2.137956243964274
2551,0.9864815287865552,1.596623400591174
6414,0.7531616183119297,1.8118232991408905
7687,0.6908266639752405,2.4036930337367433
5196,1.2207900968964522,1.7964364544320164
5403,0.6417333595366782,1.518547239820272
5679,0.7152370370970366,2.231859351248453
6647,0.9449111825230685,2.098846354830795
6568,0.5795147494431068,1.6878043330994852
6437,0.7216329125361349,1.4014075189880917
6469,0.20836274034693417,0.5662964614215666
5247,1.1975158447512615,1.640997016156388
5888,0.3395525576295806,2.0514964923345747
7811,0.9759305533949542,1.4089657800222573
4835,0.8592226174146769,2.2075333714934993
6436,1.0353716404228142,1.4014075189880917
7354,0.35420340832232694,0.701473307281401
5455,0.47340658968168653,1.042720330434385
7596,0.3700751432594758,0.6008404824177043
6277,0.6672509691295155,1.9255151268650417
6384,1.411622185536631,1.9597237292995047
7510,0.9569414013354508,1.887057700307463
3006,0.3020852744734674,0.7312906771517179
4678,1.0761176926794296,1.678655023903155
6828,1.0173491240031398,2.0369575376953093
7864,1.1570325953590996,1.353746753637888
5591,1.0353287899158012,1.3798327423986896
33,0.30963588417129634,0.6771721459888241
5192,0.8767352863854774,1.7569452290625547
5980,1.0019181894766467,2.0313567913803157
3785,0.4091273721307136,1.6984971121025554
3978,1.1421905259693856,1.2397824381372349
1174,1.4092571250875177,1.6001457664385432
5133,0.875690900619299,1.1080154919722627
6110,1.3147368946711044,1.3434553759815937
7004,1.5470970174647658,2.369617819561017
3008,0.35867936670454736,0.7312906771517179
6216,0.2144562240003528,0.8091368502852536
6111,0.9349217582577486,1.3434553759815937
7483,0.6822803423648098,1.8531238244339718
3780,0.7223836528333316,1.44690270518447
6228,0.875939379997169,2.301543683306521
7177,0.637358675946557,0.6266841650019441
6919,0.4709081006188303,1.1577816137050994
6433,1.1126304360690147,1.4014075189880917
7299,0.7571744563493881,2.908224167107618
6124,0.864505496419609,1.4957675391067502
6941,0.837839109208739,1.881748124495816
7590,0.5130378539831184,0.9260486809842334
5291,0.21620012966707808,0.5031869861986913
5508,1.174238544628255,1.704335987877158
4812,0.6308655106596617,1.4575358770543076
7201,0.710698095716749,0.5879985085047161
6493,0.23543823410393253,0.4818958184466054
7747,1.3973916457850906,1.3116766493136212
5373,0.7645600225125114,1.3711760143769418
6299,0.8616282037805619,1.3924888283528167
4848,0.6225081726563695,0.9822477325104022
7182,0.40862624368758027,0.6231582533454363
6345,1.1380090028704377,1.6516235474193959
6923,1.1707002317347484,2.0735046580006835
6140,0.32627254565630776,0.6447753691082428
3428,1.2306221059789149,1.5244668961656396
7291,1.0980717612042399,1.675110396398478
4832,0.9662538475578971,2.4154881965646813
7097,0.16324079228126157,0.7996982822012187
61,0.24933484210522422,0.3444480490310462
7708,0.3430804963985466,1.2815838430209627
6970,0.8979127209654116,1.3385315589270081
7112,0.7491708839822898,1.328831905217807
388,0.2124910540061851,0.9797654965439435
