2401,0.47356724817259516,0.365077467784651
7965,0.9651513418190799,1.471426577739431
4341,0.8178527827937762,1.6933847078442608
5285,0.22797575963683275,0.3509218845332379
2339,1.2210503777826327,1.608459796029953
4147,0.31707393234724723,0.40174001105647394
3977,0.9647529295566579,1.2397824381372349
4522,0.7177531312942121,0.8342630871506392
6467,0.22494234018973908,0.5662964614215666
6080,0.7442923965454844,1.4441823960483224
3140,1.1336074970636922,1.131877588383117
5225,0.8830747525081589,1.8228958053991433
4661,0.8857164273734957,1.3001034478137814
3859,1.1375073673814082,2.030507531504118
5026,0.15265439737898526,0.42128334139788304
3821,1.0284414371024913,1.6764839087380907
6079,0.9644016280660597,1.4441823960483224
4314,0.8390637046888361,1.7688957960430607
4187,1.2260802675314304,0.9645934802166567
2718,0.2653533623895305,0.43882847913451384
5175,0.6779317046480632,1.342741960702803
3242,0.17217149582437705,0.42129641075440943
5670,0.34539641892318274,0.8286049116126217
4774,0.2903529339967107,0.7988810007268143
2275,1.9990760324822499,1.6721631705967541
6694,1.2062770843050519,1.8915195168524779
3250,0.23612489921084912,0.6105048571952203
4739,0.19466978320540987,0.3876483239887705
3574,1.0446264116778385,1.8571693164718142
3297,0.20774385906322498,0.4629233977612526
7702,0.6307725477719283,0.8625245534403907
7278,1.075279962304408,1.2977704537120711
4111,0.2358520020330293,0.5564457180411587
2331,1.526163413316223,2.289981623789637
2510,0.6037289017450396,0.8173494288204233
7282,0.9337409155360641,1.7058790052237753
2516,0.5883834825112816,0.5851401099266496
6641,0.9808613951713566,1.7798212817312766
6431,1.0971594562213227,1.5228614097000153
5767,0.793192678142795,1.4753313689043017
7125,0.7040029277573265,0.609438821779439
1584,0.467273748308959,1.0839594418238003
6861,0.8018454186322156,0.7561549666634024
3553,0.729126871368651,1.5771429653872935
2822,0.31455966088819315,0.6813112657820422
7434,0.5894486580023581,1.029078632364317
4746,0.3294594114922297,0.42744223727046415
1573,0.4060407520467487,0.676613397295414
5778,0.7366750449285173,1.2307856967452686
3374,0.4514598853572147,0.7764470361064739
7001,1.3859143172661776,2.448322326280111
2545,0.7985340699285863,1.25719964895467
3973,2.9822716984172073e-15,1.2397824381372349
7451,0.5349764810225729,0.8514567186722876
2361,0.28054399158828147,0.3853669825614598
5239,0.9290916218863894,1.3467134728791124
7428,0.4850319755253182,0.8709943106988632
3547,1.1420323125167862,1.5771429653872935
4451,0.4214505792699049,0.46359415863460207
3886,0.8933173790724913,1.4831329787417162
2764,0.2812285562437718,0.8191544945715293
3320,0.5700714262583917,0.8300097975008575
5214,1.4454516858823743,2.0628391590999873
7707,0.43646758254138274,0.8625245534403907
6773,0.17081436034965292,0.47069842525603
4969,0.9344412938037503,1.7589772616052621
7949,0.44494138989547216,1.3020068505209104
2772,0.6600116796230435,0.8125569908581133
3431,1.1608205448932594,1.1081450121976464
6366,1.1581270111942181,2.151471896115689
4831,0.8838546755530258,1.5211706407374794
4526,0.5903401109771178,0.7288000738702531
7154,0.8176209436115658,0.8137089791885115
5666,0.5744801113807494,0.8497386952394365
3107,0.49157575713354823,0.7480868839070601
5535,0.9893192978062365,2.367760070779265
5573,0.3710298348008852,0.39528232953006304
5549,0.4109332611492817,0.462458947341154
4667,1.1524099489736421,2.325128287249879
5187,1.0605393032924606,1.6348257800632429
6766,0.2559223185733324,0.653286510067363
6834,0.9757792865090998,1.1830358512381147
7363,0.20596308008156972,0.41778845550743476
3113,0.7594817126670391,1.056894985993824
6748,0.3232895595348492,0.5485083437476522
7086,0.5177360038835742,0.5239689293071002
4578,1.0264353511263251,1.0853607338116777
2395,0.16395571884972285,0.33816099548795103
3281,0.1501380262068552,0.40710537679531394
6993,1.3988742123914846,2.2987384875199814
4736,0.1881639516971587,0.3876483239887705
6798,0.08698498799358445,0.23246899165598528
3416,0.7821162901295396,1.3155346209268155
7404,0.4947824822058919,0.5518152249625188
2650,0.07567061527174457,0.6627235371437175
2890,0.7178721913788463,1.6347531917412483
7753,0.9563552404028411,1.4656467726663887
2786,0.3529179464200686,1.1957509464243992
6328,0.6804407341032697,1.0969999466673235
5089,0.7280955770791765,0.757497075009614
4261,0.7126738207337266,0.580532423926562
3186,1.2572032136209668,1.6470290883624206
1572,0.6739671708679067,0.676613397295414
5933,0.7387235647354664,1.7331421764746278
4949,1.0827763644852633,1.737087978123842
3714,1.17562023294064,1.7890014040122952
5366,0.7023139394250555,1.0620736120168393
3403,0.8089866527272446,1.0902410318689746
1661,0.5138078257334361,1.5700583208386658
4961,1.3195043535681554,1.7589772616052621
7332,0.13782209414397173,0.7088179418087049
2439,1.2445474458515848,0.842513305914433
3030,0.5135389894628296,1.0850465676651626
6254,0.52790721327874,0.9383702340471204
6723,1.0144343551241028,1.673189181781884
2619,1.16405492283648,1.1552604600890182
2831,0.3488354576005207,0.8284295148770322
1655,1.1944994139809184,1.444420998025832
3906,0.4372222407425085,1.374991489385961
4188,1.1857532656600571,0.9645934802166567
6373,0.9757792865091,1.946411983691174
5253,0.7898102557667737,1.2379136256669887
5951,0.8922197730194151,1.0107032054974465
5206,0.977879560381642,2.3755176363308097
4789,0.7949361521457861,1.3490289414101124
6571,0.7080728436507582,1.0278152748256624
4803,1.0905175519068715,1.2963699387382424
7860,1.3167120051877526,1.353746753637888
4705,0.35107467127899294,0.630663905446286
2169,0.7007790330361293,1.052126058351507
2367,0.16904391473396554,0.3853669825614598
4660,0.8857164273734959,1.3001034478137814
5045,0.09206718569729529,0.30043366814379374
7494,1.4536731127226235,1.1751746532499219
3521,0.10876451593486895,0.5130369102665489
7522,0.7076268979830347,1.1794315850409969
7429,0.5548286718796924,0.8709943106988632
3956,0.8743611960674241,1.731311906513273
4712,0.19634495070663266,0.5787721017857812
7054,0.21620012966707808,0.46914320081000854
4421,0.3053512968148014,0.4382834291116475
6759,0.20520370385903555,0.6125832621695114
6298,0.7375840863656256,0.7905047773801243
3534,0.16853441872262848,0.5482554530517096
7618,0.4324798891479124,0.7681986516374365
5822,0.8317503826901468,1.7763738380625336
2486,0.5490883057420384,1.408726720141346
3730,1.285799915977913,1.5874043374318367
7324,0.13745752985225318,0.9259338729088131
7418,0.8188911331016565,1.0233580302434067
6004,0.6409610045003296,1.635717014583966
5396,0.7543579620414795,0.8406837776470258
4165,0.20036605941589705,0.3024669821909305
2804,0.8962654314022932,0.6874210510685569
3143,0.6609032742486133,1.2246161314486892
4156,0.15331912764348912,0.3216344407424797
5695,1.0144256808624905,1.5586109666051091
6942,1.114549821941465,1.8916386749883127
6579,0.6095177895965393,1.0278152748256624
5753,1.0094412055276045,1.8456722877516436
1773,0.2863860915519932,0.5792570395456232
2626,0.6151293793667787,1.2118621462953933
5373,0.7645600225125114,0.951266324315855
7073,0.19436304876439664,0.4877560117491797
6193,0.28895536998590526,0.4715944157274884
6962,0.9124226831452648,0.0
7287,0.520272625539129,1.675110396398478
4729,0.23062385102255079,0.455610450742254
5760,0.7501488287148732,1.6593458412377706
7401,0.4118299597488254,0.6450705853990505
4399,0.1367324015564325,0.9044429551860897
6446,0.11870960958018358,0.8652119018962171
7387,0.1763228308856042,0.3123102892137509
3927,0.8833694412200133,1.532650034984302
6659,0.9583952309194764,1.328793294272254
3854,0.41508686968322356,1.3286246742961623
3267,0.19411827000198856,0.49209918408290626
5645,1.1120431871658802,1.2405330056027664
7503,0.4798141529816077,1.1872927746017912
7259,0.9126315821002255,1.7725371654274347
6819,0.18505977001080284,0.4623835167030234
4923,0.9441542612091924,1.398937964316297
6517,0.2545303497061728,0.5384657321225407
7345,0.25176286717354057,0.5783020479286717
5639,0.9744623932077986,1.9069975413128453
4521,0.785517811874486,0.8342630871506392
6954,0.6800023838829952,0.0
4374,0.8943437228207448,1.8600733395425753
7343,0.23920074320639922,0.5429569824616445
7037,0.11870960958018358,0.7950099275899731
4937,1.11557358375415,1.4240972540473726
4153,0.2887421372519547,0.32784704802541914
3795,0.2940273466536847,0.7343065346450359
6526,0.2633729538684573,0.5825641694552529
5662,0.7300493216409638,0.8293162902601159
6126,0.9794579184690483,1.3682595074757624
6946,1.2905080624453937,1.8916386749883127
2919,0.9833168175322726,1.6374246304150384
7762,0.7949811392416237,1.3340817401424592
7715,0.8775185448516309,1.1354463550023006
6683,1.2174652258793817,1.7811387007540294
2157,0.9842345350862212,0.864426763660521
5320,0.22180036468277922,0.3780357177359755
6490,0.14812094998801936,0.39527191300323533
6795,0.11895707320550965,0.2582709880119317
4303,0.940260122305465,1.426516404476863
7177,0.637358675946557,0.6266841650019441
1549,1.2345828020657403,1.405886817342623
7731,0.8429084547981451,2.228524874429209
6377,1.0295296121845674,1.866342661079808
7760,0.7998808043592628,1.5801105695106719
3048,0.4792587262194026,0.8271200459747875
6869,0.6599839873588593,1.0650252826482027
7306,1.1330289636776627,1.6633006453910835
3925,0.635422785667229,1.4242182297388537
4799,1.1760106112778572,1.5270967174872587
3116,0.7247883494454413,1.1057397291543432
6817,0.20830402116039828,0.4623835167030234
4422,0.26961739324831363,0.4382834291116475
5378,0.7348893617724722,0.951266324315855
6341,1.2804406961883097,1.6516235474193959
3278,0.27309676909518205,0.45352442569649143
5532,1.3572856696131306,2.485522284425147
2484,0.6040953508679435,1.0541244917490642
5969,0.6573556635873288,1.3528974279020847
3401,0.48012295290745066,1.0660340404857236
3229,0.20503421069395256,0.6375419781272195
4784,0.8958399429012358,1.3441272565875353
4713,0.24390733392622324,0.6717207289341045
2232,0.51616311163497,0.8245172588040159
4296,0.8782558008812882,1.3893791357968424
5650,1.285799915977913,1.126335306181084
2858,1.2182267782595975,1.761480129559287
2852,0.9509371746203694,1.5763987135268924
5846,0.21003006397155463,0.6398127694906783
5115,0.7772606033718181,1.759805360098531
7370,0.19696622318569432,0.40589055085899395
3719,0.8500420767166849,1.7446376181268142
6648,0.9426661504171818,1.7798212817312766
4514,0.576374538415792,0.8268567704046108
5876,0.2904791698669299,0.3833724286828664
6531,0.5607864783967959,1.3898698121533901
3865,0.6674025418980305,1.4195003613961248
1980,0.8702421092926681,1.985617975400977
2520,0.4845370640269287,0.5851401099266496
2942,0.20492975725861032,0.5466656587945338
3616,0.6291323173722924,0.7268386078826066
3091,0.4509921812780797,0.6508207340941314
2768,0.6904479782615704,0.8125569908581133
7930,0.260052834917302,1.061660448286876
4352,0.7102109336237523,1.2921546536192403
6980,1.0859788083451376,2.1337392425491326
4305,0.803285199706463,1.6909519178998902
2176,0.8819183365592352,0.8919187570794087
2598,1.0396209677166202,1.7296238650599127
5836,0.5394605897142349,0.9571429800598203
2697,0.4272082946403114,0.444493975474298
3093,0.31447792721766415,0.6502497831565849
6161,0.21406278620501493,0.655501892729625
7492,1.0177474232278911,1.2514847611613866
6826,0.7804825421194157,1.8689796259821074
4862,0.37540786586995406,0.6162805155636066
5348,0.20580023704988687,0.5090442912417809
7730,0.49132122322511557,1.7473444721177847
2363,0.22379731450106696,0.3853669825614598
5083,0.7648202235658755,1.002641599627506
4659,1.0325468024097695,1.3001034478137814
7862,1.5307162665809126,1.353746753637888
5635,0.8339022166013337,1.9069975413128453
5251,0.8687990607849585,1.2379136256669887
7406,0.6160946309309258,0.5518152249625188
2978,0.17557469020752353,0.2805897741705194
3729,0.7344072058991349,1.5874043374318367
3631,0.47925409648139095,0.9555853387180907
5021,0.1725997355281198,0.4480892259723796
7573,0.8465717222097128,1.2284094198612032
7726,0.7053368679008822,1.173380093776883
5192,0.8767352863854774,1.7569452290625547
5629,0.4870235015391618,1.256006460024277
2336,1.1203059045177495,2.325132314935001
7962,0.7818904663798385,2.055841273611721
3445,1.1026727538412548,1.538923701267771
2158,0.7110154883226905,0.864426763660521
2083,0.33700406916482045,0.4959456669992864
6621,0.3873243725544545,0.68553379049922
3953,0.8014258926069515,1.7713478505195832
5012,0.28227241277012727,0.6297596570369268
3305,0.1974329150493236,0.6269050887133821
4858,0.46718888904512557,0.7320813095210305
7044,0.29558504719484757,0.39221649899766
3582,0.7495649859271835,1.5035827024833943
1793,0.35803293767882816,0.7380512542388057
7514,1.2452926137181908,0.8737491390280178
3779,1.352822876709233,1.4338786172193774
5580,0.26343162049995056,0.8927815333782257
4964,1.186008868466681,1.5945434397095182
5430,0.904982024462816,1.0180400059044254
6820,0.22691398469013066,0.6733173220105678
3700,1.5680424921922795,1.442211754814165
7953,0.9231844077099043,1.86502680046882
2403,0.423365320493963,0.3411106455073786
3735,0.9643720431139114,2.151416389739363
4637,1.2201259224945074,1.4161466902223827
5576,0.18478386068754057,0.39528232953006304
3557,0.9521285656607656,1.6217795989962707
3591,0.8295753822012077,1.7032785994643336
4175,0.24977117991546366,0.42197065446830334
5751,1.0232062483476627,2.0361673934255524
4042,0.7973788985960563,1.7405278657702858
5600,0.6304506638752322,1.647396405131189
7769,0.7807786096765738,1.3340817401424592
4468,0.20996064142331683,0.31157724610122217
5411,0.5850989209644286,0.9942232005531725
6320,0.38005900699334116,0.8668585568940333
4632,1.0516346970709947,1.4161466902223827
3225,0.17556119427220182,1.0101449689042268
7089,0.423365320493963,0.4687449265810811
7085,0.434223619809791,0.5239689293071002
6500,0.14606460045557135,0.4102953938983978
7146,0.6703747213240094,1.4063714192114176
7330,0.1369639890075478,0.7771292411824633
6906,0.4611149555762817,0.8612247037041182
2328,1.6067118782752468,2.3936583317966216
6964,0.9437594691506527,0.0
3834,0.49687063446562474,0.44490411040285177
5882,0.14902855490546285,0.5309072148983204
5981,0.9673716206000169,1.6603862348596592
3491,1.0350146764362722,0.9948584365426506
3214,0.6881147575965866,1.2925177591225794
2824,0.28404073961438847,0.6935219728436995
2127,0.1627900298611947,0.45779107564593063
2762,0.47572508604325675,0.884671709684718
1550,1.143776447470874,1.3023916263091024
5577,0.16312289692047557,0.6574755376131736
5295,0.22838385440325704,0.5582592838750119
2344,1.0205437614067199,1.3348720333080761
2842,0.5337654427790981,1.198555576332299
5922,1.3264983432059645,1.8857531823490685
4980,0.9028986347487199,1.0802426828891571
7152,1.2078327622231386,1.0135729863317573
7857,0.43262702981009993,1.5559469283094465
7317,0.6000845455263312,0.8682056507016939
3800,0.4680933897272159,0.6743439022809672
2647,0.10002100410870775,0.7672997762013918
7784,1.241296928814875,1.274373351554993
3335,0.49538678525795204,0.6461227625606909
6606,0.904982024462816,0.7642725369828146
6601,0.8862151472032784,0.9335832983805379
4676,1.3397761688729697,1.678655023903155
6466,0.3075812029618952,0.5662964614215666
6035,0.8856148855400958,2.2636405515044147
7978,0.6142469009834192,1.4811885901493622
6455,0.2725279396249322,0.4075566332088904
4133,0.2016916438176794,0.23837369174791587
6163,0.1983693660502211,0.655501892729625
3703,0.9030280760720911,1.335692162614619
7069,0.31536906081165283,0.5774432185477986
3180,1.1385336523905956,1.5239194435193206
4792,0.9701659930760288,1.611248323613069
4826,0.6915545878736894,1.2348831579297128
7637,0.44844766733309105,1.7694639357373572
2431,0.3260208681535843,0.7502734851786015
6234,0.7310568201887228,1.0369094875534772
2882,1.0048321831593612,1.7370879781238229
2506,0.521556067262521,0.8552014485660745
5455,0.47340658968168653,0.5922622787324162
2715,0.1620610341186413,0.36745964994190866
7631,0.535407420169357,1.112461163767733
3908,0.8176857443381577,1.4121582759202258
3248,0.18870299270998867,0.45652828099105436
6448,0.14734133767267638,0.8409980283545214
7009,1.3213306107308018,2.0220915697577286
2436,0.8356124149294689,0.842513305914433
4301,1.0890613984928432,1.426516404476863
6987,1.0474427836540836,1.90608686230126
7336,0.3638428276031626,0.5508013002532024
7864,1.1570325953590996,1.353746753637888
3641,0.8495949924403651,1.8532629974297719
7393,0.28459270986705104,0.34425155843966554
7807,0.8598014174364021,1.4089657800222573
3918,0.6784894622555717,1.4242182297388537
3872,1.1029899316620038,1.5385937618329946
6103,1.079817901069096,1.3664483054731211
4207,0.7007674572089609,0.9700754899804889
6751,0.2285474097348307,0.5485083437476522
3544,1.1287620020040408,1.5908140427043949
2476,0.5847760022322799,0.9240781885861832
5858,0.8526431383891403,0.8882731021525325
4141,0.16822079053670214,0.30889471813569436
5422,0.8347938137427282,1.4372956195237854
2423,0.36293104075439764,0.47344392083570186
3901,0.9246313861355944,1.3619453628142633
7105,0.28459270986705104,0.0
4012,0.6274453272877342,1.8494684409950044
2225,0.35753203119962074,0.6761818882737808
6656,0.8716554296949734,1.6568842614830788
2969,0.2335348250296997,0.25106517132036255
3283,0.10502369645400897,0.2626169605933069
3222,0.12884041622212394,0.9292092359797647
7614,0.674832849392545,0.8173562294758707
2637,0.4579643613677,0.8651907443923118
5257,0.6356442700282133,1.3891265671702167
6822,0.3552814526147012,0.8690052362407273
6389,1.385608716971733,2.0009850882799443
6734,0.14472790042701952,0.9797617141408174
2874,0.9347665558177441,1.6127140689923494
3258,0.2954901906908031,0.6028436391692369
4519,0.7459473237219035,0.9053160989786975
5331,0.12291294893280535,0.3418585242475129
7628,0.33500091023614004,1.03057366825751
2929,0.32007782662509277,1.0863794059229486
5663,0.5542891318065414,0.8293162902601159
4533,0.5288475424203471,0.6616428302242674
6440,0.10381101541995726,1.2159847055362716
6953,1.2984487398350428,0.0
6657,0.9528713643975303,1.6568842614830788
3541,1.0143523793736953,1.903668230211361
4039,0.883102329367796,1.6416721263807543
6978,1.3381756713774517,2.1337392425491326
6132,0.17420556933585962,1.0640752002419485
2430,0.3076459827779898,0.7034090759907666
4646,0.6757457582921298,1.7217986109438543
4539,1.1017468928550163,1.6096431332457937
6718,0.8688572508915129,2.045460004225333
3023,0.9483854924262338,1.1338493631935394
4742,0.18645182940461197,0.42734055788848135
4415,0.11903464395125192,0.5459068977123205
7751,1.050047400629568,1.3824935097470181
6045,0.9540516780713051,1.8572596177098828
6835,0.7872141864182972,1.0880295374765718
7258,0.7724992273619418,1.8081134493492177
6920,0.4139552640203207,1.1577816137050994
5388,0.6000369184427267,1.0338628176354898
6975,0.8509511387175114,2.0089841528940298
4832,0.9662538475578971,1.725259046241239
3012,0.2653533623895305,0.5774461011160135
3419,0.7581474696563113,1.5455037684406687
7541,0.8593468799494048,2.1099617844429512
5775,1.1558805699786179,1.8605210188381145
3942,0.8922154871995246,1.6277123994384959
7088,0.5007778345704736,0.46977293801850056
6051,1.0763553475237484,1.8710536529757478
4898,0.8935861516491186,1.1599083095180762
3243,0.24503740202569985,0.42129641075440943
4345,1.145163905241567,1.6991476399831025
4307,0.8909415302845849,1.7182677770551753
6752,0.20469948080652386,0.5485083437476522
2920,1.0028896371213063,1.6110124690068999
5909,0.8933173790724914,1.4156238602995284
5031,0.18149630620346033,0.41885974165206913
6270,0.6304411303721071,1.14790451414192
4731,0.20453941540324574,0.4377921468403968
5051,0.2081126512289559,0.47314023324571897
6477,0.1705454013412548,0.3082966490761841
4630,0.9186784807449261,1.8585650757183316
5564,0.684773198615713,1.2839776901895152
6570,0.5930849403512294,1.1239400709813516
6994,1.6900776522998462,2.2987384875199814
4837,1.1608303266605529,0.8183363085163469
7643,0.798981743395077,1.2563861114873267
4756,0.14435298847977981,0.3010692866191313
2464,0.5681658882685102,0.8890794213308282
4400,0.13717950151542382,1.1400966739554004
7113,0.793192678142795,0.476610044401382
7267,0.7266352567380392,1.6834495683770465
6691,1.2714087981897748,1.8174022972637935
6722,0.9640291292116767,1.673189181781884
2444,0.3642610570232595,1.13173041260249
5370,0.5559766838069727,1.0498073283115956
7959,0.8821464705326733,2.055841273611721
5329,0.12241129086679904,0.3418585242475129
3638,0.3642610570232595,1.4603585648789639
6927,1.458836229016949,2.0799271621938638
3569,1.2050357985540596,1.844378705493448
3651,0.9562014065574574,1.9451116562949962
3102,0.5495297622161315,0.6181744965220382
4122,0.27513000566719126,0.5778580112339842
7617,0.43642795793198236,0.7681986516374365
7593,0.7524923033522555,0.6008404824177043
2773,0.6436438788414637,0.8148333703711808
4772,0.27801181666377806,0.5617265676597456
4266,0.5294260203298307,0.525800883451475
2642,0.10436517585965659,0.8651907443923118
7137,0.36263668303760127,0.9248278391943386
2219,0.5884215384567368,0.7380559004135682
4953,0.8908213919051504,1.8424249851892947
5380,0.5792073922623411,1.0338628176354898
5092,0.5273643810042923,0.6030082171068686
7576,0.7466352368514931,1.6343777708420362
6303,0.7894072644943613,0.6493847608236395
6778,0.22877752466025184,0.44320520973751715
6142,0.18928447152546968,0.5756435225013204
5706,1.3247307951647602,1.6344294227707379
3426,1.369278433961942,1.6181263912936077
6402,1.272846955491999,1.9001278732169193
2479,0.4735008885394832,0.9810775691378728
3554,0.8443867258909646,1.5810102235096457
2571,1.1618536203815544,1.8730793638909164
4169,0.19668459330179267,0.41849947176037167
4444,0.19606700446358322,0.37364458626602276
5065,0.30324173845080304,0.8717987481090429
4957,0.9927439225285928,1.8424249851892947
5027,0.16128211852867053,0.42128334139788304
7535,1.345298525337417,1.950085704790929
2654,0.3277974364989918,0.43965666960786637
2990,0.138407782277791,0.34839177263922394
7710,0.4537571652034878,1.1354463550023006
7697,0.7492515622193984,1.3875800954490305
6702,1.1806101731514793,1.6712690312114993
3364,0.7680494457907968,1.0584998636400245
7579,0.6433881665345818,0.8576318535076598
4308,1.077409866919078,1.7182677770551753
3207,0.5824386281729438,1.6260682627547027
2549,0.7787302580030505,1.4011925074555964
6252,0.43765465463478315,0.9610103738075331
5308,0.23959616786051455,0.3573410191846565
7276,1.2288179113111224,1.2977704537120711
5652,0.6000369184427267,1.126335306181084
7490,0.9398004528181364,1.28297843379262
4285,0.7615457741099445,1.5308507323004708
6602,0.6202026253160142,0.9335832983805379
6781,0.18022850728651216,0.44320520973751715
7153,1.0230548181186785,0.8137089791885115
2366,0.13234245941086353,0.3853669825614598
6255,0.7085052552622161,0.8744573955501757
3737,1.0619884881071833,1.503730071191641
6588,0.845154254728516,1.5847017613946366
2635,0.8408065041632883,1.0131173477944437
4651,0.9426504735894379,1.6563216331522117
2167,0.5439234163737242,1.060305190161405
3566,0.850951138717511,1.879806089163579
4382,0.9124394225719175,2.270574191966158
3208,1.1762774007573193,1.6260682627547027
3088,0.4596893051028927,0.6508207340941314
6304,0.6137185462169426,0.6150778093940179
4014,0.9674063506221526,1.8494684409950044
4363,0.8562325094789901,1.7033088344469827
4942,0.7910866502221442,1.456943658297135
2931,0.192748546595815,1.0863794059229486
4189,1.0713649695935747,0.9645934802166567
5085,0.9402598447345006,0.757497075009614
2402,0.4908622934196414,0.3411106455073786
7548,1.6025650325010445,2.4680505053708064
7390,0.3128566091694517,0.3123102892137509
5786,0.7970858906744771,1.2307856967452686
2621,1.3104202446352888,1.1552604600890182
3346,0.5489203784359791,0.666114253917202
3365,1.0104772891377292,0.958247701662829
2705,0.10730188574117687,0.27009492534612234
2838,0.7791938072235174,1.198555576332299
6012,1.0206207261596565,1.743958950987135
7914,0.9208463281486521,0.6240770139563292
3826,1.3239078336651642,1.3880056678745334
5339,0.19063918163201357,0.45668613390236823
2611,0.868708702422221,1.6362486174486548
4828,0.7418602859713476,1.391545783372286
6505,0.18011996095922211,0.28357873074269146
6744,0.23123196640162402,0.5775652544183757
5772,0.8592805402535564,1.7003104320143176
5852,0.6162731198732222,0.6398127694906783
4866,0.461542252051167,0.40511295363355854
4024,1.3703979687234111,1.9449879802557384
6590,1.4012289783763066,1.5847017613946366
4278,0.6907647683763127,0.9804396744722498
6061,1.1336074970636922,1.6512125418126795
3076,0.7352012330177444,0.9573603444677135
3360,0.8223364446321842,1.3647454425497443
2871,0.888857500432326,1.8011158676654322
6179,0.09564832280716293,0.2490137021180479
7801,0.6841119308309704,0.9695159453741873
7035,0.11398879169505031,0.8753130444500925
3822,1.1099481173754688,1.7226422851240768
2904,1.4664955300565365,2.1194891560449403
3110,0.448902771368613,0.8761225522549635
3899,0.8689021964596905,1.3619453628142633
6250,0.6533517730414461,0.869669325803066
3187,1.2702796138780337,1.6470290883624206
2334,1.1023783523340054,2.289981623789637
5968,0.7198219808502798,1.1980502635349597
5901,0.6274453272877342,1.6998264172616184
4208,0.7445962579279093,0.9700754899804889
2177,0.6907551045168763,0.8919187570794087
7922,0.27373515978922136,0.736690385226733
4392,0.7416429807420908,0.9044429551860897
5443,0.716031038748654,0.64563566359486
2922,1.0286548489866973,1.367194908330938
3568,0.9806452706607247,1.9640473567484749
5967,0.7559708340960392,1.1980502635349597
6091,1.0375981182968006,1.6787835068627137
3361,0.7453713091502912,1.6365631055147147
6351,1.0248165114810863,1.6177015472053875
3944,0.618344044243765,1.6277123994384959
2607,0.7958287896375887,1.5917911421138757
3665,0.8707102208201275,1.086441077708979
3532,0.1317165368741759,0.4038407665223742
2229,0.37170092445898695,0.7209409585894583
5044,0.13383646141837607,0.2743541905427157
7295,0.8868867563028203,1.7074933955830016
3345,0.610852849697101,0.666114253917202
5501,0.9422630002033726,1.9014214768036763
3612,0.898414365592216,0.75749712661595
3639,0.5173106869108074,1.7056635504550868
2694,0.33424753647454436,0.4337244310313471
7031,0.09566884076259731,1.2064102598926385
3885,1.0389193447108362,1.459878213498934
7005,1.370688334093985,2.369617819561017
4679,0.9096359225800337,1.678655023903155
4943,0.85139300946248,1.5558400022762437
5364,0.8585372956072843,1.0910894511798195
6084,0.7232479451521595,1.314047948758636
7265,0.8206803678634219,1.6834495683770465
5900,0.9475830333658811,1.6998264172616184
2971,0.15873104935972693,0.23943109763282897
7208,0.20409408262623618,0.5879985085047161
4200,1.0493972799089448,1.0950714076142085
3325,0.5753200851796778,0.8092813582490594
5405,0.414956617083698,0.8273349233784504
7326,0.1394899387044796,0.8575784544314291
3997,0.9374309457679121,1.3728594110182966
2695,0.3099995431273366,0.444493975474298
2347,0.7259496003612723,1.3348720333080761
4326,1.1399767949049084,1.2378476491825332
7297,0.8903961283722379,1.6613594924564006
4268,0.4418874989465386,0.525800883451475
2678,0.31210910922716045,0.423176481232186
7915,0.5469082404055395,0.6240770139563292
7547,1.3135068986468301,2.500197912082714
3882,0.9480649719119276,1.3845790132244344
3055,0.24503904863383125,0.7045717951251316
3520,0.17120391175934346,0.5305502320756538
4523,0.34285827347952375,0.8339587024581891
3819,0.6368363975654039,1.4566509728266834
5262,0.5938062560191425,1.1908218485709814
4863,0.4214906816127002,0.5588279087776554
3402,0.7647929676365176,1.0902410318689746
4166,0.207270125996531,0.3024669821909305
1580,0.5525314100895096,1.0023384258039518
7348,0.2369755964162237,0.6444202992721919
2961,0.1900722829979969,0.6103258330841116
6452,0.3542554699664491,0.4075566332088904
7183,0.37200021006623285,0.6231582533454363
2800,0.9931926239901058,0.9230755579204155
2266,1.1883982863802287,2.4395601065356147
5109,0.8860680849218578,1.1217314137248013
2679,0.1705454013412548,0.4160875723975052
5164,0.5067889950187732,0.9866293961389561
6808,0.20288489310583557,0.4470726433815709
2845,0.9337824848975558,1.198555576332299
6622,0.28151944981489163,0.68553379049922
5604,0.9196906247704993,1.1643818867108227
7568,0.868044206068613,1.2284094198612032
5509,1.1022254165759142,1.6760418779591417
5049,0.1831792491478888,0.360587832478133
5618,0.6864166037575677,1.1605567507031833
2766,0.5681600628637278,0.8191544945715293
4393,0.9810956547047864,0.9044429551860897
7021,0.9148265698557224,1.5716575598650622
7453,0.6359703519218931,0.9909854130962072
7184,0.2879126598758921,0.6231582533454363
4381,1.0677764984476428,2.234389037367595
3704,1.3729533856947924,1.335692162614619
6257,0.7494662055783643,0.9019768594098164
7444,0.5073137559296141,0.7064451332119999
3823,1.2129940076520291,1.7226422851240768
6247,0.6729181095333441,0.869669325803066
6899,0.4748404265188837,0.7240304816216309
7725,0.5426581626703033,1.173380093776883
7041,0.11424351852806407,0.5620857239451951
5570,0.3207215920500274,0.39528232953006304
5823,0.8918785063429355,1.5211947070404852
4210,0.6364950493241144,0.8351100911396978
3417,0.7570676391870164,1.3155346209268155
6272,0.9211766430835839,1.1427579601289077
2652,0.1591246765044454,0.5233208317934217
6699,0.8293479466359682,1.6712690312114993
4318,1.1170876760070914,1.9251980050285176
1579,0.44630483493201895,1.0023384258039518
2802,1.169760981555644,0.740741778307161
4242,1.0493496483484974,0.9178072300107832
2820,0.26961739324831363,0.6749300657411075
4530,0.6127049201851585,0.6616428302242674
4520,0.8114610852369182,0.8552675758039924
2828,0.36871783597054564,0.6941734437763842
2307,1.0692181799204747,1.8330635807549207
7038,0.12629804289851987,0.7930468835779453
7960,0.8878066967215925,2.055841273611721
6174,0.15873104935972693,0.2862084634296137
5956,0.427708334734566,1.0107032054974465
4823,0.6237962365836255,0.9297767201886012
4409,0.3392659447814581,0.5459068977123205
7195,0.32063916404858805,0.5256042627219664
3428,1.2306221059789149,1.5244668961656396
2385,0.2126262638531734,0.4767013071284424
5119,0.9822818858112949,1.8406525645106449
2079,0.2574062774119994,0.6844591508817844
3679,1.5947151173451417,2.0983494437741044
3720,1.1027674029585965,1.7446376181268142
6943,1.1829796003445703,1.8916386749883127
6433,1.1126304360690147,1.2660104867760642
4793,0.8463244372809459,1.611248323613069
6364,1.3302847581812307,2.018578096597986
3233,0.29522870134427487,0.5674854295468731
5561,0.3045476306578389,1.3752476614503624
3062,0.4536079523084704,0.778175950162971
5267,1.0524814051690692,0.8469578327996772
7644,0.7989817433950771,1.2563861114873267
6021,0.7841907979945003,1.760085345050959
5944,0.9876357545836919,1.2055892568418285
6706,0.9938696643363757,2.21768647283589
7007,1.3686185103730433,2.0220915697577286
3893,0.9606464395258836,1.4831329787417162
3868,0.7961659159416287,1.4195003613961248
6986,0.9482910198003316,1.90608686230126
6535,0.9964157230715605,1.1743668487867414
6695,1.11557358375415,1.6712690312114993
2859,0.9453704011107588,1.7714414954046998
7202,0.7093647331175342,0.5879985085047161
7676,0.7093647331175342,1.5620401857568262
4628,0.8427253995412544,1.5592383831762184
6266,0.4694731508457529,0.9174614660759599
3586,0.7631907313683245,1.5035827024833943
5788,0.4887960962175053,1.537146160469681
1983,0.7799664749815846,1.985617975400977
6645,1.0494827572694803,1.7798212817312766
7446,0.37375343595096694,0.7798329186854537
7004,1.5470970174647658,2.369617819561017
7629,0.4258124930069578,1.03057366825751
3960,1.2858565688908814,1.731311906513273
7587,0.7909269153950562,0.8203142289225246
3439,0.6675423872530609,1.0670294982393267
5664,0.4892318606372513,0.8293162902601159
3311,0.6537955229400068,0.8369313510478276
3359,0.9022964837485502,1.2267179783190485
4406,0.11081439621730677,0.5459068977123205
5807,0.9062695081830956,1.5493139661829456
5640,0.9721443414708261,2.0423545505775227
2959,0.21864374214276777,0.562157728682879
6068,1.014425680862491,1.6864697981363654
6756,0.253801676777109,0.6120526047805734
3037,0.6766745959474673,0.6560491383281354
3609,1.1341728509944662,0.75749712661595
2466,0.4989503758181434,0.8890794213308282
4721,0.23764697463098683,0.7023989368375145
3559,0.7715955207741895,1.620427349074837
2285,1.1177167113267639,1.5819570737253075
6292,1.1564415324981092,0.8795827911902686
5830,1.0587605735007926,0.9571429800598203
6332,0.6195248920111809,1.267998241216527
7075,0.12761527534740014,0.4877560117491797
6249,0.5487029760933274,0.869669325803066
1599,1.3739700410512312,1.5820499645160924
3501,0.5596658402558903,0.935627174648234
3629,0.3337989450877117,0.7543682855602828
7407,0.612886158074581,0.5518152249625188
5095,0.6278334824619726,0.6030082171068686
2070,0.23481527418089146,0.5330646690956956
7479,0.5515646194575323,0.9361284585600951
4979,1.058985535712313,1.132843048848157
2765,0.2991818179835279,0.9113992016996953
5953,0.8213505442078901,1.0107032054974465
3686,1.4907554404478993,1.8399963156087322
7376,0.2600346762432205,0.4263678362172282
3324,0.4900841141029674,0.8092813582490594
4383,1.2259940373929898,1.6940461444176422
2143,0.8038973793864422,0.9813130016895671
7127,0.6932038148282107,0.5050886799562662
2272,1.636248617448657,1.6721631705967541
5142,0.4624326494336789,0.6690913856248283
6495,0.3890830174490777,0.4972281249172758
7087,0.5401788852226038,0.5012536387445621
4275,0.40914578405335816,0.84291310944979
3970,1.0925627069493502,1.3936332077334614
6540,0.7903577113946085,0.9969409185254309
2149,0.7427129635819025,0.9813130016895671
5078,0.8339807443155532,1.081161676685014
7197,0.35039251692919643,1.0720963697035424
7505,0.4900545296697284,1.6337878091872604
3074,0.8326184346054771,0.9869926951254623
6335,0.9979684837126914,1.9530479917021348
6479,0.17120391175934346,0.3082966490761841
4458,0.11190777916817332,0.30451825774160496
6739,0.17050973700481453,0.8811192550757699
3071,0.4909959634984604,1.004674346970349
3136,1.1706657918270285,1.2366407820384744
2756,0.5815571440591543,0.9404038728105767
6083,0.7226892346472173,1.314047948758636
6438,0.5089793419966624,1.2159847055362716
2926,0.9901475429766737,1.0863794059229486
6501,0.14554361043568836,0.40899308785204574
4172,0.27967760212722775,0.42197065446830334
2066,0.2977122143906781,0.5403537222033001
1439,1.0978218643982618,1.9558046076983542
5062,0.18400494947525822,0.42167787857518746
3042,0.4864439431627244,0.8502746272497913
4105,0.22258550639353847,0.5864565601471824
5145,0.37191699720504867,0.7342380590397886
6069,1.05157547213763,1.6864697981363654
3812,0.5728458725356386,0.790559061828303
4053,0.8338826236847016,1.8022847626505039
3176,0.5323286388103144,1.5251799434094355
4821,0.52790721327874,0.8918440777929836
5271,0.11166418305113346,0.8469578327996772
7592,0.6124175254401769,0.6008404824177043
5837,0.5265043859754028,1.0555654684441313
5190,0.9509371746203694,1.6794355372347987
1570,0.6585433971791277,0.676613397295414
5341,0.2167770532434418,0.45668613390236823
6696,0.8739331243264351,1.6712690312114993
7419,1.02950498249857,0.8279448847004667
2377,0.3720352189815973,0.657189932854066
2884,0.8864778633158896,1.7370879781238229
5400,0.5186730751837451,0.9031869788799646
4747,0.26741917686955463,0.3775504828318857
4703,0.11424351852806407,0.630663905446286
3174,0.4900545296697284,1.5251799434094355
7918,0.10876451593486895,0.5391159923124261
2912,1.3200687165804905,1.692107989455986
4944,0.8372513991297105,1.5558400022762437
7499,1.0301215368236434,1.1751746532499219
4034,1.0429516871244062,1.6392874200706682
7712,0.6403084939149241,1.1354463550023006
4191,0.795836123529462,0.9645934802166567
2463,0.7007790330361293,0.8890794213308282
3430,1.4261345175025852,1.279596512436229
4545,0.803154889965604,1.2531905372093406
3331,0.5968142648414342,0.6799817102672103
5596,0.7813280077631263,1.4833646250032593
5131,1.1382483948345852,0.7700320701002824
2353,0.15995316285695654,1.1670217402148721
3046,0.6843695917796087,0.8271200459747875
4022,1.2138614041295475,2.090730661671091
6619,0.31240959808683383,0.6779105919812982
2271,1.433628637079556,1.6721631705967541
7970,0.8609658433304019,1.4176647906781643
3788,0.18560807615887853,0.9831959947191804
6644,1.179116530301642,1.7798212817312766
7388,0.1946377886970832,0.28459270986706253
4849,0.6059590500499051,0.6891039380759121
3614,0.7742224542577492,0.7268386078826066
4454,0.27309676909518205,0.45853879791535473
7684,0.9156788181332357,1.1953682898233764
3633,0.548934590817508,0.9724344221754426
7506,0.35065579516837697,1.7979887626894635
2913,1.5444356980992542,1.692107989455986
7447,0.4536079523084704,0.7798329186854537
6800,0.1282889997736909,0.23246899165598528
5199,1.119910963806993,1.8336284748677802
7791,1.1099742798579384,1.2785753146166186
6194,0.3010202522237568,0.4588968070076386
7066,0.4459938693253198,0.7317911207914923
6122,0.7051139829899452,1.513789561588776
3328,0.5732538908661204,0.7443464485147098
7673,1.1421237464055831,1.8847653903353028
3308,0.2856528683756087,1.0119142646322161
7501,0.7045157623921048,1.1751746532499219
6988,1.166086925146792,1.90608686230126
5060,0.14178222967182902,0.36575931913026566
5770,1.2548973864871393,1.4753313689043017
6120,0.9665578662668591,1.513789561588776
5001,0.20384108785527907,0.6164593132094315
4872,0.39497642337279343,0.40511295363355854
5354,0.2715525466244523,0.7269665425060906
7025,0.898414365592216,1.2064102598926385
6507,0.13774533743416742,0.28357873074269146
6516,0.24744206372084185,0.5384657321225407
3069,0.33720235746364974,0.869599665580465
7758,0.9327613164256795,1.9212969934904975
2269,1.2712834523274565,2.2594882701979557
5143,0.3760106740231841,0.6690913856248283
6613,0.5348841842532275,0.7172159830244949
2825,0.32067915412530534,0.6941734437763842
4845,0.6067293226952448,0.7449231066641723
7112,0.7491708839822898,0.476610044401382
4648,0.9077652481959502,1.7527170730257642
4211,0.6786906773641586,0.8351100911396978
4554,0.6907647683763127,0.661610585488498
7450,0.5181260048515359,0.8498548324150151
5451,0.3038064850110745,0.5931366305872913
7909,1.2725964201072173,1.1056306118151624
6419,0.9746615038731173,1.826529448254435
2174,0.8107322220010126,0.8919187570794087
2844,0.8882010352388284,1.198555576332299
4627,0.8868101760469669,1.5592383831762184
1703,0.8406718731926742,1.754703183690939
5000,0.15803971289171362,0.5014251915409026
5338,0.15153861478835792,0.4537187050360996
4443,0.19125839166968164,0.37364458626602276
5593,1.023416248933072,1.3798327423986896
7315,0.8412407857006048,0.8886825517826792
6867,0.5230761518583501,0.818669551367638
5358,0.5699438027399482,1.206695786811526
6487,0.2176918048429269,0.39740075869563607
3203,1.111031319704959,1.6260682627547027
6036,1.1833755959072823,2.2636405515044147
7312,1.3541015446015052,1.2171563117075777
2247,0.7698176289707266,1.600268342738172
3221,0.17291714151404103,0.9292092359797647
3264,0.16194499160406142,0.49209918408290626
3179,1.0667152816848777,1.5251799434094355
2806,0.4513453773589815,0.6874210510685569
6970,0.8979127209654116,1.3385315589270081
4842,1.0395003996088468,0.806253373415211
4334,0.9459542573367072,1.2378476491825332
4859,0.5177396323519168,0.7002505630083702
7303,1.0307802993759325,1.8375168478890886
7097,0.16324079228126157,0.0
3746,0.6536901729397756,0.9917277125084307
2979,0.1387275332204791,0.4035499301914989
2502,0.8918141773618501,0.8966798210621549
6494,0.21542005175795859,0.4972281249172758
7104,0.2272194888541011,0.0
6470,0.1810240718144668,0.594160003127888
7513,0.9941189487509341,0.8737491390280178
2511,0.47828062086171735,0.8050737138244646
3057,0.33720235746364974,0.721525284576385
3825,0.7873605753018306,1.4874202969258323
1998,1.152101851971294,1.8178023019640606
3907,0.7619743611291594,1.4269776510347618
5793,0.9762075543803919,1.5017231184879913
2508,0.5946502141838274,0.8173494288204233
4714,0.2809223912028805,0.6834307519377971
3369,0.7293866447966825,0.8550926967897069
4960,1.2701737431817488,1.776687156633647
6844,0.3107033977687633,1.0174143217135068
4038,0.883102329367796,1.6416721263807543
2869,1.2402440461381212,1.8623615474316035
3347,0.4182822946485591,0.666114253917202
6895,0.6167472768927611,0.7240304816216309
7853,0.774860902282657,1.1489627717356594
6789,0.7157940829172257,0.4055601714507878
2207,0.8227228756504495,0.8798528653580182
6974,0.7473313386599614,1.7910795395047276
6140,0.32627254565630776,0.5756435225013204
6401,1.1976020843451456,2.257309491448413
7863,1.3959121002042083,1.353746753637888
4656,1.1020710221531727,1.3001034478137814
7632,0.6080756599071975,1.2166958511248502
6278,0.7853743551302681,1.1860861763396104
3026,1.1694792141145098,1.1180986748011046
6413,0.6674437118994466,1.74562507336732
7641,0.9680627681343111,1.349026734487069
7658,0.6178293101472917,1.457108786699929
7937,0.863813750497172,1.996621523801313
7366,0.2338747650126325,0.41778845550743476
7290,0.9676349465850116,1.675110396398478
5211,1.0076833530369123,2.1570896996876225
5387,0.8229254894177366,1.0338628176354898
7544,1.0142998008434898,2.500197912082714
3424,0.8510051607988736,1.6181263912936077
6215,0.18686592198178564,0.4693330499880441
4420,0.2303454138185476,0.488485026812685
7778,1.0440497359904275,1.274373351554993
5624,0.6925428045556169,1.0701661664334647
4101,0.07567061527174457,0.7011512729053917
6524,0.2903412335710134,0.5825641694552529
5132,1.1885718693799174,0.7700320701002824
3914,1.1373593589163717,1.3077377319027101
5036,0.375541983159266,0.3728056707007971
6749,0.32908064167309087,0.5485083437476522
6308,0.37170092445898695,0.5868957054720235
5067,0.469027470859778,1.1197358758805054
7691,1.0199867692458355,1.4032849932924079
7745,1.4279688638666705,1.3116766493136212
2231,0.4515351495966546,0.8245172588040159
3161,0.9130650215809255,1.1986714705936663
3145,1.0949825144363277,1.4549146781135536
5669,0.48629374444860013,0.8286049116126217
5352,0.22693315905760952,0.5175487825613445
4282,0.5464951432696131,1.0891800667941498
6880,0.7465740753687303,0.935360720002761
4807,1.0800619023436953,1.1075430615070405
7409,0.34285827347952375,0.5518152249625188
6312,0.4845370640269287,0.6160130915976796
7584,0.7892951128027985,0.8203142289225246
3189,0.7979661845474001,1.489671662770604
3749,0.8633127514025631,0.9917277125084307
6889,0.6606929306180429,0.8894812876222337
3063,0.5644376772520862,0.778175950162971
5105,0.6286449555496404,1.0121292202756718
6460,0.23818497855322301,0.5643869347442828
6813,0.2111375501592358,0.4470726433815709
6757,0.32043754645319394,0.6389135531287015
6983,1.0850803244981793,1.90608686230126
2554,0.5449180828947022,1.4540462888250911
2646,0.12165899035529974,0.7800483873423217
4654,0.9231060296989276,1.3001034478137814
4753,0.12012408621794884,0.3010692866191313
3089,0.505777240015005,0.6712314603077825
7578,0.8333061274555477,1.170977972288651
6755,0.36230818869666465,0.6022910662602392
7189,0.3991047864752495,0.5256042627219664
5437,0.6229938606274025,0.9881873537165753
2471,0.5113705820498338,0.9240781885861832
3710,1.1833755959072825,1.3652684514160274
1794,0.2761610118335307,0.4964224875828603
5927,0.7387235647354664,1.8857531823490685
3495,1.4556143650094657,0.9948584365426506
7107,0.38248707596820786,0.0
3667,0.911941762531429,1.086441077708979
3549,1.0325468024097695,1.5771429653872935
1654,1.0518558873631063,1.444420998025832
5213,1.3493201972373905,2.0750068382491915
6971,0.6494606696132799,1.4669607646673875
6160,0.26616987954822524,0.655501892729625
6284,1.2820199200932898,1.9255151268650417
5977,1.2718267040131235,2.275378549799416
6529,0.32493580328712696,1.0130638433111079
3274,0.21614706305219847,0.480491644732084
3253,0.2577211041781753,0.6934776079678979
3011,0.27091370179641,0.5774461011160135
3875,1.0423532474402877,1.4593333814885874
6873,0.8382459817160723,1.0502375335669722
6731,0.5798967731041792,0.9797617141408174
7164,0.2639673154187421,0.7635184404940707
6050,0.9741594934387883,1.8710536529757478
7677,0.8592718802577305,1.492619785428882
3288,0.11204192500392597,0.2626169605933069
5860,0.9085592067759749,0.8882731021525325
3005,0.23425973231575536,0.4182302545409665
2794,1.179755360260239,1.6917536233294148
3440,0.7388148606605885,1.0670294982393267
3981,0.6918613446906228,1.2636955572379875
7012,1.5754350683844855,1.9113456174344916
4411,0.2160322917915436,0.5631927444521032
3336,0.5418040471301222,0.6461227625606909
7739,0.7525713426910579,1.778349388261091
6840,0.7205346253259844,1.0381927646216755
6701,1.094681993110812,1.6712690312114993
7630,0.5255557219353856,1.03057366825751
5886,0.26343162049995056,0.7063409947686853
4854,0.4509921812780797,0.676771919470621
5421,0.9320953437417184,1.4519320068978134
6009,0.7933844198196299,1.6660802505178336
6028,1.0424777600621264,1.320068716580494
2944,0.2656099322475604,0.5466656587945338
3077,1.0116394316470734,0.9277551410749123
3902,0.9425310114408002,1.3619453628142633
2877,0.6686143658325178,1.6127140689923494
5918,0.7525823690898418,1.6453969813595415
5762,0.7958287896375887,1.6593458412377706
5758,1.0570337582302551,1.6593458412377706
7484,0.6310130457081078,1.3158754496483531
2238,1.0075891619724449,0.9855277031738972
4407,0.0916416051406362,0.5459068977123205
2359,0.18130032921169878,0.38911598641503276
7181,0.6423919179185481,0.6231582533454363
3081,0.5674906664067,0.7151761832678345
4221,0.47744999146015527,0.9972621335133411
2405,0.20244250057942964,0.332422118379678
7380,0.1296771388271213,0.38257187921051783
1548,1.197769764908968,1.407370847585709
3632,0.5702343836357109,0.9724344221754426
5908,0.8626599906897977,1.4156238602995284
4891,0.8221093048057027,1.4921255779050728
6828,1.0173491240031398,1.9501773334950248
2088,0.26695502874006344,0.29970909641407034
4847,0.5706057582576005,0.6891039380759121
6177,0.14243767586627504,0.24244241048286747
7147,1.0352967082547468,1.4841046327006246
5249,0.8368052358193039,1.2379136256669887
2458,0.9187924594464038,0.8957362831061934
4570,0.3309609414647332,0.7162857670888338
6233,0.7869260268398404,1.0369094875534772
3923,0.9078630146099954,1.3899407409859865
2487,0.6174201043944347,1.4310576911345796
5361,0.9281234614359021,1.0910894511798195
7101,0.13794407066462977,0.0
3100,0.3987813193014723,0.6181744965220382
7585,1.0056490325890386,0.8203142289225246
5042,0.09820799407338811,0.2743541905427157
5383,0.5202952960530512,1.0338628176354898
2808,0.40246692159444714,0.6874210510685569
3083,0.4438261849217787,0.6508207340941314
6792,0.2694622201692991,0.2582709880119317
5627,0.6043988259786621,1.1878673111341465
5034,0.43503751318234996,0.46028850863580345
5196,1.2207900968964522,1.7964364544320164
7445,0.37417407380449963,0.7304480245517834
6172,0.2335348250296997,0.2862084634296137
5243,1.0693289041738472,1.4350912383813237
4388,1.0351766300554253,1.2913243481855583
4787,0.43594317229050417,1.3441272565875353
6782,0.06652740042519753,0.4055601714507878
6404,1.263040861156255,1.8521524939277167
2648,0.1293333806127127,0.7488031663472218
5555,0.3098688794183558,0.856997684452372
3694,1.2114947199943404,1.97652630076066
6662,0.7241459650169417,1.2791404252031118
6372,0.9474547817925005,1.9292230568012152
4552,0.8053369648828953,0.7545445480912819
3103,0.31723365589361874,0.6181744965220382
7648,1.1406402587279025,1.2563861114873267
4248,0.8591862438428116,0.8998229918864445
4284,0.7272660065961087,1.4239664971421953
6924,1.4491607134652522,2.031509960602843
6637,0.6904545870159813,1.1910311286744788
2276,1.5424714456806983,1.6721631705967541
4977,1.1422770198488772,1.3578602922332528
3919,0.6638209955392943,1.4242182297388537
3648,1.3013394054489187,1.9451116562949962
5506,0.7475090494269783,1.8885501831042486
6502,0.1345479613243377,0.3903879267438151
3869,1.1688028865047142,1.4195003613961248
6230,0.9200715409284264,1.1899908599119358
2289,0.8908708585841404,1.3649519212227554
5929,0.8770580193070305,1.9615420344572152
5402,0.4390484339797034,0.9708915084261711
2010,1.092842325404396,1.2374534156241264
2880,1.1163356224387082,1.6127140689923494
7927,0.35862877279739425,0.736690385226733
5832,0.8731264761175034,0.9571429800598203
2400,0.34600902226289737,0.43166533259059114
6615,0.38488056923004454,0.6779105919812982
2393,0.14281021547521475,0.33816099548795103
3510,0.21854459604905363,1.2715018916215226
4710,0.21406278620501493,0.5787721017857812
6874,0.5251559954293407,1.0502375335669722
5791,1.2553490018721025,1.5017231184879913
6152,0.1692014903946224,0.3732534915972545
6196,0.20584334021225784,0.34968757627442415
6783,0.16800291104751044,0.39138294127266604
5152,0.3375744101565555,0.8655054623855155
6180,0.10656109835377908,0.25496245577304355
7187,0.29725992227431935,0.5256042627219664
4843,1.0869165485713361,0.806253373415211
3139,1.205102519030088,1.131877588383117
3052,0.6978780231688835,0.7721972754278125
5755,1.2806044822290654,1.6593458412377706
2930,0.19002544386898568,1.0863794059229486
7536,1.223563651627985,1.950085704790929
6088,0.7418505330628334,1.4645485296884377
2928,0.5929640111860498,1.0863794059229486
6859,0.8956915363963257,0.7561549666634024
4020,1.3718041950791586,2.130630505160733
7906,0.9521278089422371,1.4885571028769058
3231,0.17439992397092177,0.5674854295468731
6777,0.13758647384072728,0.44320520973751715
3164,0.9633651395969686,1.4885786884489254
6208,0.12311311506940019,0.4193105648888565
4981,0.7918033326954688,1.0802426828891571
3135,0.9234429811707666,1.2366407820384744
5705,1.1196817047793668,1.6344294227707379
2780,0.7286065932998258,0.8865328602335477
4956,1.025978352085154,1.8424249851892947
2970,0.19376730464749795,0.25106517132036255
6127,0.7706764036122326,1.0640752002419485
7719,0.5233046142053935,0.9823461125109026
5557,0.4495670937251801,1.0170870287210134
3049,0.4894144278400686,0.8220132639579238
2962,0.26576279214321824,0.6103258330841116
4011,0.831188685420858,1.8494684409950044
3531,0.21111721043086978,0.4038407665223742
7398,0.1812566924183503,0.35615310066502553
5061,0.1419854739221248,0.36575931913026566
4159,0.12815924527494058,0.2982993610058462
6164,0.178854356460298,0.6802701838034411
3528,0.5630264930297748,0.4038407665223742
3506,0.10436517585965659,0.963916560542831
2813,0.27712828940689216,0.6693026509007073
6153,0.2195186209329934,0.49415958718757214
6617,0.412939628114191,0.6779105919812982
7919,0.1205170040692069,0.5391159923124261
2370,0.19903644596788833,0.6413085836713549
2368,0.09192649135098477,0.38911598641503276
4281,0.5169074172193174,0.9989452313603968
6855,0.7346629384539802,0.8381364837026988
2538,0.8913028659690935,1.3617519275777739
5847,0.19015378455068463,0.6398127694906783
3636,0.40900794957934977,1.1246632521899649
5623,0.9531489332240278,1.0701661664334647
3412,0.6572179340505447,1.274160731239206
7575,0.570128270114821,1.618795712845501
7944,0.712278679006223,1.3020068505209104
7463,0.7304198114934013,1.9160439780077154
3663,0.772512000492686,1.086441077708979
5134,0.9064852417682898,0.6163852606662784
2995,0.12815924527494058,0.31454993746285415
5195,1.265165037477406,1.7964364544320164
4897,1.150834161920455,1.1599083095180762
3413,0.7285799949856776,1.274160731239206
6661,0.6606929306180429,1.2791404252031118
5930,0.9529516818617924,1.9615420344572152
3173,0.6987806813638268,1.5593338655694762
3634,0.6247359683979119,0.9724344221754426
7026,0.7061882541527991,1.2064102598926385
2087,0.2687064296780167,0.29970909641407034
2447,0.9783065853466585,1.5241723821703812
7381,0.1494013941140346,0.34503911896854966
2809,0.42111796283575104,0.6839536247500068
2383,0.4025936853189114,0.5015005873438692
2330,1.763716663512457,2.3936583317966216
3798,0.3784113949078693,0.6743439022809672
2267,1.3313857468166401,2.4692069293132155
7102,0.1597673718644674,0.0
2895,0.7473959846716524,1.7152428551149497
2595,0.7350669352448076,1.7579145491231807
4874,0.3978145320463306,0.40511295363355854
4369,0.7355289505424534,1.8600733395425753
7299,0.7571744563493881,1.6613594924564006
6125,1.2341469845983102,1.3861020793855283
7542,0.7080124118565514,2.500197912082714
7620,0.36528282459411593,0.831335010647646
6799,0.0999292188668885,0.23246899165598528
2791,1.0307802993759325,1.7379220709858763
5938,0.9266910758630135,1.6093754454607148
5547,0.5391201036318193,0.462458947341154
2514,0.6074942660229408,0.5851401099266496
5256,0.5842164015264475,1.2379136256669887
3622,0.6315129956391526,0.7451377531135787
5954,0.8350574723572768,1.0107032054974465
7294,0.8955259671626707,1.7074933955830016
7496,0.8812905866321941,1.1647465511372412
6522,0.21577872767632297,0.5384657321225407
5138,0.396516142283676,0.6032779348916926
7036,0.09929898771613903,0.8191977430551529
4834,1.0898311835225494,1.5586803966162024
4580,0.7402582413513281,1.0853607338116777
5527,0.958008530391823,2.2604020668134686
3190,0.7777093647678439,1.4259628269956723
6720,1.059820986694751,2.3198118858120944
6251,0.4609061884593454,0.9048645629416429
5157,0.5851554588374449,0.7982487569073213
4825,0.5539766033333103,1.0585027224777763
2249,1.18707878064291,1.9050041298506932
7292,0.9637142977117328,1.675110396398478
7861,1.302993010301636,1.353746753637888
5869,0.5023586876395753,0.8280099846229473
4219,0.24503904863383125,0.9394579698293208
7333,0.27338426314990755,0.7088179418087049
4738,0.2180689365299618,0.3876483239887705
4212,0.4809955673819384,0.8351100911396978
5301,0.13629697877823252,0.5582592838750119
5340,0.20740830652771966,0.47104313176288054
3623,0.5938931559025339,0.7451377531135787
6900,0.47340658968168653,0.7240304816216309
2399,0.1556930297067839,0.39648241021570274
5268,0.7004977791834024,0.8469578327996772
6936,1.552522750961807,1.881748124495816
5601,0.597538155702054,1.5202604548200636
6015,0.7648591620007921,1.743958950987135
5148,0.4265617325364135,0.8036306251744024
2237,0.5802942151294129,0.9034000641164587
3115,0.6606613843845478,1.0624675931369743
7322,0.13910105699877603,0.8886825517826792
6222,0.18429629482126553,0.6759594501249176
5637,0.7961659159416287,1.8929828655882337
6727,1.4503015286158756,1.1724049726381416
6486,0.2202828670867897,0.37909596811477037
2250,1.0251188903594346,1.935938350081202
5052,0.24930881140428815,0.36575931913026566
4170,0.24930881140428815,0.42197065446830334
1545,0.8913715646127871,1.632499665364714
2754,0.45055299130190624,0.9404038728105767
3787,0.13217313458074406,0.9831959947191804
5426,0.7656296140931612,1.1080979154707484
6914,0.6864166037575677,1.0434900189689982
3230,0.22546793108607693,0.5821082301846642
2623,1.288505058124239,1.1552604600890182
4967,1.1451905805522216,1.7589772616052621
6198,0.15132772557478455,0.26494587450077195
2830,0.37809364037988114,0.8030174088693285
2992,0.11455439168423913,0.33620474951838547
5797,1.002889637121307,1.5017231184879913
6043,1.3304230781241977,1.8572596177098828
5080,0.8725939529672903,1.002641599627506
6779,0.1632234507479596,0.44320520973751715
3084,0.4933728580442592,0.6508207340941314
2630,1.0949825144363277,1.2351643788333833
5220,1.181536171432845,1.7225704071675938
5516,0.7460012458837052,1.5684177206241694
2632,1.607332014252846,1.1735351980572837
2245,0.628967061658064,1.35110894280773
7934,0.8564042630991294,1.996621523801313
2812,0.21180681127070916,0.67054140980597
5439,0.5369570948151007,0.8473229240021287
7605,0.4560740881462098,1.0111688791230693
7610,0.15218375055739108,0.9607343111041072
4920,1.0585551681775072,1.3577118393864218
3552,0.9837045916345453,1.50579525892371
2374,0.26775471859092165,0.657189932854066
6434,1.3401793980353767,1.2159847055362716
5153,0.49425969899948347,0.8655054623855155
7443,0.627388610426056,0.7064451332119999
4384,1.3323500917460103,1.648783612496232
6405,1.5188697315478852,1.8118232991408918
5880,0.22722394645557992,0.3833724286828664
5303,0.20587595423042493,0.49600015270435344
3573,1.1114045438952156,1.8571693164718142
3492,1.0516621563801476,0.9948584365426506
5588,0.7356092237563353,1.3798327423986896
4918,1.2691546546110433,1.5963867712460151
3496,1.4271714357268273,0.95633320593561
3946,1.1433239009500593,1.6277123994386045
6400,1.4665695370946181,2.4014281698249738
6812,0.1552634343793979,0.4470726433815709
6676,0.44003146933125237,1.5242523236851884
3498,0.6886620130136457,0.8769038653716578
3619,0.32351760099921584,0.7268386078826066
7905,1.2341255881251108,1.4885571028769058
2016,1.1403579898360092,1.2374534156241264
3447,0.7038249698731482,1.754637069798106
3690,1.0613123732006915,1.8399963156087322
7426,0.48323796264538,0.8279448847004667
2588,0.9427331661897441,1.5670697973949685
6977,0.8360476042770327,2.1337392425491326
5330,0.10899949638099012,0.3418585242475129
5553,0.2156320752392986,0.5924770805851759
7359,0.1716479718582976,0.643742248226478
4971,0.8839406802566884,1.764293061876522
3724,0.9553526854559253,1.5874043374318367
7098,0.14063643613799298,0.0
7065,0.3772769279067022,0.7405533935047282
5898,1.2298628825894902,1.6998264172616184
5087,0.4174306419751016,0.757497075009614
7559,1.3053703347192434,1.2830998591127785
2360,0.1671448394239228,0.3853669825614598
7334,0.4983006447030404,0.7088179418087049
3130,0.7631907313683245,1.3051022120652243
4723,0.2577211041781753,0.7253817223903067
7010,1.5376022702144578,1.9113456174344916
6322,0.45633899046340226,0.9795731467673409
3774,0.9919824941037904,1.7119215653966584
6269,0.4813844725754698,0.9813260467626057
4716,0.41868553797165603,0.63863435107314
2084,0.3614855685218151,0.29970909641407034
7659,0.8742884046487563,1.457108786699929
7051,0.20782120183734454,0.3500456634875642
4026,0.7940439631846988,1.7289101870203105
5530,0.4156938282279826,2.463340148176059
2793,1.186511535467267,1.7245320470257588
2564,0.7293903317255578,1.2929396394053252
4624,0.779112294351236,1.5143182855167847
2152,1.0109310177893045,0.8400485378075897
4698,0.1866811082821122,0.7561488101211479
5144,0.35600870632746345,0.7342380590397886
6221,0.20030019318626255,0.6068532436310735
7438,0.4850816258341488,0.8031234285183321
5611,0.8197412347743602,1.1643818867108227
7555,1.6456875368285897,2.082542847974714
3073,0.5895158674945126,0.9946552481365881
4398,0.13653328798151196,0.9044429551860897
4243,1.2000892476568634,0.9178072300107832
2908,0.9511017840680939,2.1194891560449403
7668,1.1454662092136274,2.1161474626551984
2547,0.6821543540545395,1.25719964895467
5162,0.4773029689784572,0.7982487569073213
5584,0.6798870693480529,1.5135077964463737
5907,0.8859972117559111,1.8241609922535156
4643,1.0293385914592819,1.7217986109438543
3061,0.37297366337204,0.7721972754278125
6115,0.7139436437484056,0.9979346983164384
6380,1.122704977991315,1.946411983691174
7032,0.1354719746035738,1.2064102598926385
3716,1.0765005099706044,1.7446376181268142
2209,1.1280158205537807,0.8798528653580182
6519,0.2664829315654766,0.5384657321225407
3209,1.2096444612674373,1.6315458172516848
4162,0.11999024145321394,0.3024669821909305
3793,0.3536962786040779,0.7343065346450359
6967,0.8443867258909646,0.0
4871,0.48718540938143756,0.40511295363355854
6394,0.9324383084490419,2.257419653444408
6580,0.48111950480633575,1.0278152748256624
3210,0.9746615038731173,1.6315458172516848
6186,0.20700470948818453,0.26114312826123415
5622,1.1476248233428155,1.0701661664334647
7279,0.6918613446906228,1.3888644140166688
5545,0.7918033326954688,0.462458947341154
6464,0.2891466840782723,0.5809460425724283
5641,0.9790013192049098,2.1045809279887226
6042,0.9954591781064541,1.8621183730090989
7923,0.39426199694355735,0.736690385226733
5538,1.4479485030493178,1.326413988902309
4623,0.8003498782130997,1.457009596940607
5362,0.9093184234594143,1.0910894511798195
6357,1.11736910705479,1.641312786725046
3273,0.18149630620346033,0.480491644732084
7293,0.7184910881093945,1.7074933955830016
2257,1.667467393681664,1.9617703581854402
5395,0.7021701319867232,0.9031869788799646
5586,0.5081549586578371,1.3798327423986896
3733,0.6690255675416499,1.8093671611393523
5894,1.4059049495734899,1.883837284965319
5166,0.5795641774638479,1.1218908189750747
7116,0.5115052359018577,0.476610044401382
2435,0.7304198114934013,0.842513305914433
6212,0.16183650749008896,0.47058256476827853
1953,1.0593488967469975,2.1518951169380136
5633,1.3147239070785206,1.9069975413128453
4427,0.21377191180196195,0.4382834291116475
1992,1.5049946023276288,1.938117117283165
7296,1.107273675388399,1.7074933955830016
6443,0.10032467294494518,0.9688790018408833
2391,0.21123757400889134,0.33816099548795103
7920,0.1336130531700491,0.5853868878498792
3561,0.4855559946572886,1.620427349074837
4880,0.48979872806126123,1.0703094598587177
3241,0.1652393849004398,0.42129641075440943
2864,0.8862151472032784,1.790590390574994
3003,0.2632657866256357,0.32991370883397103
3963,0.7911464611748292,1.6305795419716471
6171,0.295427808767188,0.2875401000457681
5120,1.042968286293499,1.8406525645106449
5193,1.0719342086469765,1.7964364544320164
1662,0.9337409155360641,1.519618618787621
4277,0.7184025316175336,0.9196745119572391
4791,0.9036793103534827,1.5194755939868878
7747,1.3973916457850906,1.3116766493136212
6007,0.863922852111513,1.6660802505178336
7162,0.3248110789298542,0.7437418967476283
5999,0.6947387981484392,1.3317478975709187
4813,0.6637976699448809,0.9183547511446647
4719,0.19272497149585602,0.63863435107314
5140,0.47239992121651186,0.6531297998300635
5318,0.1549907787036229,0.3780357177359755
3652,1.0057712300036323,1.8070883747334792
6279,0.8172202126233851,1.1860861763396104
7018,0.8958568457704351,1.7886917453486029
3314,0.7742224542577492,0.8369313510478276
6123,0.7600980433443445,1.539309151982741
5356,0.43740761170708276,1.028463076218623
5924,0.9776288064824883,1.8823568286424552
3106,0.3984138253971352,0.7142707787942596
5010,0.33229707866811187,0.6297596570369268
1958,1.115481843808999,1.8710536529757589
3177,0.666436588860132,1.5251799434094355
4025,0.8702421092926681,1.754298695900926
3224,0.15119530975644102,1.0431981124888186
2612,0.9606618055814093,1.6367744173288046
3658,0.852225637276094,1.2528988309667597
7924,0.6157535103011545,0.736690385226733
3198,1.0233940409176823,1.3756868213777544
3713,0.8112187031796495,1.7572150375003508
2716,0.2566416345044254,0.4010098179637609
3611,0.7412276550732652,0.75749712661595
2891,0.7495649859271835,1.5539770748432105
7567,0.603509285167999,1.2284094198612032
7396,0.21111721043086978,0.35615310066502553
7216,0.917352263897852,1.527414318367261
7704,0.956010209139884,0.8625245534403907
3098,0.3755141512839066,0.6181744965220382
5566,0.5582204780487299,0.7445303704103454
6913,1.0277969049015951,1.0434900189689982
3146,1.0949825144363277,1.5100038934969502
6379,1.1591101661891063,1.946411983691174
3200,0.8427253995412544,1.522554326833603
7155,0.637358675946557,0.7437418967476283
6187,0.20208052234860344,0.2980856504135638
7607,0.45572789403424646,1.2796392450876541
6955,1.1650553613280958,0.0
4135,0.16289672075288136,0.23837369174791587
4146,0.22662979366359157,0.40144466726552475
3332,0.6060803083228959,0.6461227625606909
7023,1.05157547213763,1.2404032655416404
6286,0.7847927005481946,1.6684939442309183
5854,0.42930956625792055,0.6924239278154418
2947,0.3356840454056984,0.5926843666593604
4048,0.9428090415820638,1.9978260984435634
5759,0.7910513717740066,1.6593458412377706
3727,0.9030280760720911,1.5874043374318367
2253,1.0122331522458883,2.0495132187115184
4290,0.8125569908571787,1.538427573564808
3971,1.2803687993289605,1.3620155431385657
3790,0.27189275904182303,1.0652121539254868
6534,0.7363885301430669,1.5341228040233919
6569,0.7346790589928621,1.236726645005632
4397,0.11180031291383999,0.9044429551860897
4681,0.8543114573830639,1.678655023903155
2948,0.31233642752393714,0.5926843666593604
6078,1.360063417574519,1.4441823960483224
4051,1.1458343309369508,1.8022847626505039
4559,0.48757338923319343,0.5824739508132051
7422,0.7340137768224169,0.8279448847004667
6199,0.15166748897470192,0.26494587450077195
2605,0.7619854716569379,1.5917911421138757
6843,0.6117349675673578,1.0174143217135068
4868,0.32978058359816,0.40511295363355854
4683,0.9487898054558612,1.6246198014197328
5756,1.1618536203815544,1.6593458412377706
6915,0.5544098476727218,1.0434900189689982
1772,0.27420447364194833,0.5288180085577765
7622,0.28405862684493394,0.831335010647646
5568,0.692862454385852,0.519180937699856
4013,0.651149320089401,1.8494684409950044
7338,0.3327616946507481,0.5508013002532024
4023,1.2587813152163094,1.9449879802557384
3989,1.0898206245802922,1.605947792534343
7096,0.10481957342979283,0.0
6094,0.9952113652544446,1.8431525929007655
6110,1.3147368946711044,0.9979346983164384
4459,0.08001319551497915,0.2855607289088629
6429,1.147793072210392,1.5228614097000153
2356,0.15367689671579293,0.9311747681087821
5998,0.838614301704382,1.3057913552651035
3043,0.5456199654989444,0.8774318867490731
5424,1.0015752637778548,1.2344192574981252
5006,0.31629007931413905,0.6189889415419915
6639,0.5677294011126505,1.637783220839487
5678,0.4302928101532422,1.462443164261348
3199,0.8868101760469669,1.3756868213777544
3254,0.25287917206581656,0.7469853366320056
2424,0.361648038909997,0.47344392083570186
7523,1.033072229851791,1.1794315850409969
3888,0.9509371746203694,1.4831329787417162
7412,0.44959675904081337,0.6154331430212083
3678,1.6155752004901436,2.0983494437741044
2014,1.1463897441957451,1.2374534156241264
4155,0.15295661619262851,0.32784704802541914
7400,0.3337989450877117,0.7265470848554187
5926,1.0816440605328463,1.8823568286424552
5961,0.7781779138665815,1.115865432998957
6449,0.18091909163619124,0.744592049817516
4215,0.6877724415386446,0.8784541592355227
7980,0.7622329031168433,1.4811885901493622
7508,0.6978695771336382,1.0341619420435268
4351,0.870047375748308,1.2921546536192403
4653,0.7725120004926858,1.383870356786681
2345,1.2665056554180303,1.3348720333080761
4642,0.8543820649710127,1.7527170730257642
6155,0.19903644596788833,0.6522528762376435
5208,1.0148496078861058,2.1570896996876225
4992,0.17272840579874688,0.5468383433824204
6081,0.6879332075393668,1.3857968288627553
4954,0.7968807640886107,1.8424249851892947
4945,0.863922852111513,1.5558400022762437
3449,1.250900191469742,1.986106097708289
5766,0.7679166916273809,1.4753313689043017
3844,0.2011086648068815,0.39894801013218995
6333,0.7696649110048027,1.4719558850696046
3068,0.34288208482995686,0.8652129906588351
4950,1.2668402811701547,1.7940621139692534
3535,0.19580703616107153,0.7851547379151969
7539,0.6128632730634102,1.950085704790929
7740,0.8255407797111893,1.684336665591231
5905,1.0498754280605773,1.6723582615330321
2255,1.4023577669950535,1.997043761763692
6191,0.36168346366504645,0.47514332018533906
4644,0.8032118750902548,1.7217986109438543
6077,1.5967076789678807,1.4441823960483224
5219,1.1719352361284263,1.7250422416487996
7796,0.7659962108526577,0.9695159453741873
7070,0.25332779002569483,0.5324787999824784
7859,1.097279761232839,1.4561111519362684
1995,1.4670821246244814,1.8178023019640606
3188,0.9759000729485331,1.5239194435193206
6403,1.2724307429161485,1.8581736158840458
7808,0.7019010407360192,1.4089657800222573
6213,0.22469806633555434,0.4693330499880441
6445,0.09929898771613903,0.8652119018962171
2352,0.15838062662963784,1.3141781798646706
3015,0.36943437640987603,0.7083335293260401
5429,1.0036628207424454,1.0180400059044254
5305,0.33315607588109414,0.483434735053694
3326,0.4010239002498908,0.7569701849925298
4320,0.6115793239686109,1.807205329685771
7933,0.6030379951214611,1.971981518886048
7545,1.3133175233479915,2.500197912082714
2918,1.1922997268634998,1.692107989455986
7305,1.1934745089987202,1.843597805166193
2286,1.184697755518185,1.3649519212227554
4922,1.1504165811160136,1.398937964316297
6566,0.694850750987782,1.236726645005632
4447,0.14724986790351635,0.37364458626602276
2701,0.10248313244636126,0.3087592216335405
2394,0.17182054002413072,0.33816099548795103
5972,0.9690616586129145,1.3746792587377656
6476,0.289224397687592,0.3082966490761841
5075,0.6034081687198297,1.1182181957508333
4337,0.9217530289562508,1.3809827208707643
1985,1.0961944249478177,1.985617975400977
4785,0.9382302199299889,1.3441272565875353
3350,0.387947352910885,0.7509415614240699
5294,0.23861939955145256,0.5578499211194283
6625,0.4550208685900508,0.7146327420499017
1547,1.1514398277919742,1.4472201659743322
3992,1.3540974811372457,1.4473796238257257
7512,0.8417852054877784,0.8737491390280178
2372,0.24123405208712953,0.6413085836713549
4378,0.9528363428745636,2.1009382399157643
5612,0.5728458725356386,1.1643818867108227
3156,1.1923734580747503,1.1986714705936663
2153,0.894982822704524,0.8400485378075897
4329,0.7898102557667737,1.2378476491825332
5248,0.8001776137614293,1.4540462888251162
6585,0.829779195717871,1.541175906450319
6075,1.0820280193474041,1.5403219237732502
4783,0.7956060407064828,1.3005744026999102
2268,1.6657669759070124,2.483460598114172
7211,0.5068508203788907,1.4376359121686495
5592,0.878801534267347,1.3798327423986896
2429,0.3052093878175249,0.6271637758184428
3087,0.45152942691227904,0.6508207340941314
5008,0.3064892943367778,0.6297596570369268
5282,0.21746609072290343,0.3509218845332379
3539,0.468996442079551,1.8468887186578928
6105,0.9558920920216094,1.3664483054731211
5595,0.831725140605257,1.4833646250032593
3784,0.8800289622793332,0.9831959947191804
5559,0.7791684646464896,1.3752476614503624
6342,1.2379136256669845,1.6516235474193959
3751,0.9357701185087436,0.9917277125084307
3676,0.9065963785715916,2.1986925914954267
4958,1.120217439361465,1.8424249851892947
7491,0.8969982749519654,1.28297843379262
5879,0.2925431711395857,0.3833724286828664
6324,0.6124625396887692,1.023316607154307
3983,1.061585634659792,1.5001524074838968
6875,0.4913500634024757,1.1280612539780588
2622,1.0933842966577685,1.1552604600890182
6981,1.1681179463430589,1.919816574693468
6707,1.1166959334623299,2.0266912108373396
7720,0.7586849363526641,1.0619317262445693
5609,0.7581474696563113,1.1643818867108227
6345,1.1380090028704377,1.6516235474193959
7608,0.6329122396463676,1.0326117736847318
6330,0.6778237875363878,1.0969999466673235
7664,1.1774471596280975,1.2209597441706117
7272,1.0972383249309263,1.2977704537120711
6197,0.16910912369139378,0.3251559942791792
4840,1.306452289522682,0.806253373415211
4836,0.8351799031572417,0.8183363085163469
7057,0.23861939955145256,0.6459585724068212
5050,0.17507849054202498,0.36508246841177966
6146,0.23155723781592724,0.3732534915972545
7782,0.9845067316556712,1.274373351554993
5425,0.9025434707148783,1.160690793922624
7792,0.8125103304443204,1.2785753146166186
6732,0.35109237047616426,0.9797617141408174
5960,0.37554649674559887,1.115865432998957
5875,0.23211027503070553,0.3833724286828664
6173,0.19376730464749795,0.2862084634296137
6488,0.2377071948340145,0.39817374918274445
7714,0.5081549586578371,1.1354463550023006
6675,0.6523118854752464,1.2170063401951254
4379,0.9637202560492398,2.1009382399157643
3044,0.7336585176363359,0.8902009066346777
7599,0.23426453648585682,0.6848141401065883
3279,0.18240364462342493,0.4532152472034236
2936,0.23024291708733768,0.777245913840552
4251,0.44191937980103657,0.8267558226556148
7640,0.7462819797684439,1.395442406033603
5322,0.34600902226289737,0.4147003871907082
7271,0.8670623389849363,1.2977704537120711
3118,0.8739831638229516,1.2110942900792552
6338,0.7715955207741898,1.8749635103396867
7694,1.32251623062345,1.3875800954490305
3896,1.1769934528138242,1.374991489385961
4887,0.5259779136850059,1.3169949929159088
3962,1.1245432301751968,1.6305795419716471
6796,0.11117653431673076,0.2582709880119317
3124,0.7375370584239249,1.3022117940632538
3620,0.460673874827127,0.8098932475859194
7289,0.8643187741937527,1.675110396398478
6118,0.40885630945627016,1.0714993980926844
7540,0.8668051404645615,1.9713699491850363
5657,0.716594080523207,0.8533804614477304
3770,0.9439199659697257,1.7117721017226781
7925,0.7669526127464785,0.736690385226733
2736,0.5926196520170312,1.246173184692568
6033,0.4470046924273124,1.5128699706817563
7636,0.468996442079551,1.8171196625800163
2977,0.15388755515837976,0.25152655021167586
6031,0.7878732099784981,1.320068716580494
7321,0.09730669817006732,0.8886825517826792
5896,0.7884333292363588,1.6998264172616184
2206,0.7448368244508159,0.9264034425452506
3572,1.1719352361284257,1.844378705493448
7078,0.1597150050241862,0.4877560117491797
2552,0.7071523089842275,1.4011925074555964
4915,1.2147532208660865,1.5982216577961466
5821,0.9172128188801171,1.8241329779448765
7062,0.1667828214905979,0.7500420778613233
3745,1.0420061053248497,0.9917277125084307
7550,1.651445647689543,2.3915105010198885
7129,0.47042474898130804,0.5050886799562662
2248,0.6559553508009337,1.7879091590287561
6814,0.20125911355751533,0.4470726433815709
6059,1.0893646784107922,1.6512125418126795
3895,0.8370773814115254,1.403722795515475
6857,0.6736706991849157,0.7561549666634024
4249,0.6186029807882741,0.8121558268878103
6646,1.0101525445522108,1.7798212817312766
3239,0.10587664877717114,0.5083412145622691
6809,0.18235239999178363,0.4427382273111374
6166,0.33499390949458496,0.7920769564001667
2375,0.24058279863929133,0.657189932854066
5546,0.7949811392416237,0.462458947341154
4258,0.4884965153193374,0.6183114326668998
4752,0.14713489501053162,0.3195946440563622
3883,1.2339386461707733,1.3845790132244344
7470,1.6801495081906412,0.7518531410989101
4645,0.8870785789388681,1.7217986109438543
7109,0.7586849363526641,0.2800047586228614
5517,0.7857456178334569,1.5684177206241694
3344,0.5641503059058545,0.7215448963682077
2807,0.3769024171993692,0.6874210510685569
4353,0.5694460055738884,1.2921546536192403
5839,0.19714120041459088,1.0555654684441313
4299,0.8541907324486656,1.3893791357968424
3691,0.98258660623196,1.8399963156087322
7210,0.3718116164803035,1.086585853521956
4116,0.3759461980801056,0.48360717808991566
6847,0.5844244000272114,1.0047696346944044
4218,0.4130262617197937,0.9193915502829514
4201,0.9281153557142006,1.0950714076142085
5392,0.6547434064569583,0.9284735478253403
7713,0.7986893600160984,1.1354463550023006
4432,0.27650026152280166,0.5036046104151701
5246,1.1842985414792424,1.7866447272332098
7941,0.5499020673742426,1.4185306613923865
6185,0.14931133480853484,0.2980856504135638
7145,0.803076989725773,1.324729579474116
5281,0.13782209414397173,0.3509218845332379
6698,0.8758454442205894,1.6712690312114993
6046,0.8973326366809387,1.8572596177098828
7133,0.47229412190818154,0.5050886799562662
3818,0.6240956426709167,1.12689692355832
3711,1.0389193447108362,1.3652684514160274
5978,1.4812543133450355,2.274350966580672
6595,1.1569792579419524,1.5303854255436746
6717,1.060269049398764,1.8492361325076723
6991,1.1413307239466517,2.165825785445097
2968,0.2958511391951727,0.25106517132036255
5057,0.1985464395116396,0.36575931913026566
6291,0.9829688890561001,0.8795827911902686
7706,0.7144783025706815,0.8625245534403907
4952,1.0597181620869751,1.7940621139692534
6894,0.88534706694936,0.7240304816216309
5757,1.092461864826081,1.6593458412377706
7200,0.5953598152176676,0.5879985085047161
3887,0.750872623246345,1.4831329787417162
3400,0.38664226735292295,0.932245223096852
3493,1.0422307253992817,0.9948584365426506
2570,1.1653714685913845,1.8730793638909164
6409,0.8065247618220408,1.74562507336732
6314,0.3544332687178025,0.6248943704731681
5113,0.6551386034156594,1.2984911858687676
3138,1.2793644055983446,1.131877588383117
4394,0.6704210846080689,0.9044429551860897
6165,0.2303454138185476,0.6912866284651098
7415,0.4868013394584499,0.8737902749724145
3441,0.6792390531930064,1.1081450121976464
6340,1.1015147140391743,1.6849560444996692
6049,1.1810121979127608,1.9468217511806258
7667,0.7159216866733533,1.4786684594172028
2277,1.3482423587275572,1.6721631705967541
7081,0.23921689712142485,0.5217573263370716
5440,0.5058981619155366,0.6794780766973871
4764,0.2344636704107055,0.48969624047339133
1544,0.9249061064148442,1.4519602067408268
1993,1.6367253663479955,1.8595987730975863
5779,1.1224405389689247,1.2307856967452686
4267,0.48366789290416706,0.525800883451475
7394,0.2798304796171283,0.3460668987396461
5829,0.9868841035401459,0.9571429800598203
3987,1.1994835177968115,1.615179839078684
3668,0.8828548807306078,1.086441077708979
2078,0.24734529521225287,0.6509916549913374
3167,1.2770912713631255,1.4885786884489254
5409,0.6247359683979119,0.9942232005531725
2847,0.5293927949285646,1.2501329307314033
4569,0.35600816385526435,0.6539583776650636
7580,0.7571744563493881,0.8282543517896183
5920,1.3167120051877526,2.232684912946579
4795,1.5025194778356337,1.611248323613069
5613,0.6779317046480632,1.2688472842181457
4806,0.5938062560191425,1.1328278718491112
5795,0.7732322748534759,1.5017231184879913
2251,1.1637936103203432,1.935938350081202
7736,0.7036670610418956,2.0129018036028605
6253,0.44284476828160296,0.884135797397696
7110,0.8651907443923089,0.35657881582019124
6293,1.2031150999063716,0.8795827911902686
5200,1.1370426921286083,1.8462527095539925
3397,0.4388689425553179,0.7578720765292549
7591,0.6000845455263312,0.6008404824177043
2472,0.4944366978094839,0.9240781885861832
5544,0.8857886561644064,0.5924770805851759
2996,0.13633040020846313,0.31454993746285415
5895,0.5407908872107946,1.8316638415578075
3565,0.90791019848664,1.879806089163579
7385,0.13609837836068056,0.3123102892137509
5923,1.223563651627985,1.8823568286424552
6385,0.9985277214718519,1.7305935080036465
3585,0.8096794118092964,1.5035827024833943
4804,1.0345687557879062,1.2010508756848401
4269,0.4573616078460103,0.580532423926562
3312,0.6827587448385875,0.8369313510478276
2168,0.6895982101689531,1.060305190161405
7430,0.6595660724168552,0.8709943106988632
2011,1.0937270553588165,1.2374534156241264
2521,0.43895690112024216,0.5851401099266496
2853,0.7954363296947928,1.5763987135268924
4180,0.27014809495347486,0.6354485739251091
6482,0.1480970573184037,0.3082966490761841
1699,0.7785897156631177,1.1975567466456705
6544,0.6353078202060072,0.9440514924069527
2483,0.5798657710404793,0.9810775691378728
1771,0.27556246348359903,0.5288180085577765
4941,0.812372232910391,1.4240972540473726
2713,0.18930050820591107,0.36745964994190866
2609,0.9022964837485519,1.6362486174486548
3219,0.700999250050716,0.9292092359797647
3701,1.4108673128827571,1.3607824691092023
2945,0.2331503810239827,0.5466656587945338
7464,1.6411645570898759,1.734388005654282
3206,1.1680284442396343,1.6260682627547027
4174,0.2051368180316342,0.42197065446830334
6235,0.6942611475729689,0.9908739681842691
3363,1.1698981207507755,1.5516173577275556
4340,0.7187017284755701,1.4531226245602287
6879,0.881497035879233,1.2927906438463148
4035,0.9124394225719163,1.6392874200706682
7160,0.5836747154731667,0.7437418967476283
3422,0.8562951516517061,1.5776478372382277
5931,0.8057632952137126,1.8031703294176753
6958,0.9684911310117971,0.0
7711,0.5907855662262719,1.0606326650652669
4234,0.880802991013288,1.3924151979201582
2711,0.1554428453272591,0.3149166805248275
5792,1.057433226470206,1.5017231184879913
4927,0.8042938469334394,1.682377454361002
6150,0.2239882662385079,0.3732534915972545
7656,1.1361972844891322,1.6437299230539681
6184,0.15063203691721316,0.2980856504135638
6093,0.6106595427326654,1.8163314310710608
6005,0.85139300946248,1.6660802505178336
3976,0.8960198207131662,1.2397824381372349
5597,0.6043988259786621,1.4833646250032593
5913,0.7873605753018306,1.4156238602995284
7347,0.2676050096971372,0.6444202992721919
7367,0.24283021655738524,0.41778845550743476
7675,0.710698095716749,1.9017541214473797
6667,0.4995354568814362,1.1991172430596635
3550,1.151439827791973,1.5771429653872935
7733,0.6775620789868849,2.0786981720620683
6415,0.7294201597732164,1.8118232991408905
5684,1.055225229755989,1.7300765891710626
5274,0.13984226387612958,1.0941072864441566
6318,0.4648937286735463,0.7892261234309611
7061,0.24733262568069186,0.738558921181151
1696,0.8963866631776618,1.1975567466456705
5984,1.2229192373805131,1.6603862348596592
6010,0.9074146559341343,1.6861547465307898
3029,0.9181553991582684,1.1180986748011046
3503,0.38573392645773114,0.963916560542831
6563,0.6476521148257885,1.109918406439583
7134,0.3932826651826228,0.8210693758572548
7776,0.6433881665345818,1.5243099835257048
6423,1.2397649042283223,1.8939018546320214
5272,0.117998624344756,0.8469578327996772
2998,0.12598049067627712,0.32152303096063317
2879,0.9174315763919034,1.6127140689923494
7767,0.7809727585683404,1.3340817401424592
2513,0.5861066927892072,0.6411086674173738
7316,1.013102317572125,0.8682056507016939
7284,0.8961831754439243,1.717448753763335
3054,0.468491033141877,0.7721972754278125
6692,0.8503552509049087,1.8174022972637935
2972,0.14053526783507045,0.23943109763282897
3064,0.5068610513220663,0.778175950162971
6577,0.985965333335662,1.0278152748256624
6877,0.7698744159595425,1.2364109487104034
6156,0.23448650884012956,0.6713147824194943
5872,0.265681918727861,0.5690244048639584
5659,0.6203511310587912,0.8485194053498865
7961,1.1872206832521173,2.055841273611721
4560,0.4918759008080974,0.5779822409667009
6860,0.9096025470588343,0.7561549666634024
1956,1.194333423712546,2.1518951169380136
1210,0.295427808767188,0.26002556535896987
7519,0.7347966616602266,1.1794315850409969
5349,0.21449307084062266,0.5090442912417809
2160,0.40900794957934977,0.864426763660521
3654,1.3147368946711049,1.6001905918296997
6313,0.25507007026902573,0.6160130915976796
4691,0.4366126785632796,1.2430347843014098
2651,0.08465746186293732,0.5784672579995562
2939,0.296979980423428,0.5692553070166669
3395,0.48718540938143756,0.7561030919489421
7510,0.9569414013354508,0.8737491390280178
3246,0.13234245941086353,0.42129641075440943
6089,0.6324709775340126,1.4645485296884377
5528,0.8549341219474847,2.3531994140471264
3396,0.44672427168432455,0.7578720765292549
3220,0.2609900765239017,0.9292092359797647
5801,0.8619002277112255,1.855458597733098
5914,1.2573508668628635,1.4156238602995284
3154,1.0021071758012705,1.3041672063428256
4096,0.152748122899432,0.7352926620398615
3389,0.4250721333051251,0.49750512788591444
5326,0.13282561436481644,0.3671112115203636
5599,0.8011937394025289,1.4888661631965228
6503,0.12913184388066398,0.37621977095730375
4455,0.18240364462342493,0.43218111845613527
7650,0.984718450642705,1.2563861114873267
5796,0.7541516823637443,1.5017231184879913
7121,0.275062284307687,0.8025503277452338
6968,0.8593516899421122,1.2394158647825777
5420,0.7462819797684439,1.5316234566616491
7106,0.25173432089777126,0.0
3295,0.2631927314441286,0.4286237670973194
5334,0.13283127715864101,0.3418585242475129
7144,0.5265272268790766,1.0162446605987974
2013,1.0164258722673343,1.2374534156241264
3366,0.9436233234424226,0.9290358363477464
5302,0.17208583838375693,0.5582592838750119
5940,0.9081532183729996,1.565101588036855
5897,0.9399543353968302,1.6998264172616184
4750,0.1541939007051798,0.3598289370070272
3662,0.8134505048170194,1.086441077708979
6726,1.3105135624931126,1.2456840360163195
5236,0.8295363246848891,1.3467134728791124
5675,0.4872759721670015,0.9929327335905985
7024,1.164710682886723,1.220086200171968
7534,1.4643248765586594,1.950085704790929
5916,1.1445011805154552,1.4156238602995284
3085,0.7493927918695369,0.6508207340941314
2279,0.750872623246345,1.8342475354652716
1577,0.4120179817094247,0.676613397295414
5838,0.5798967731041792,1.0555654684441313
7028,0.622220564841317,1.2064102598926385
6949,0.9763696832161939,1.4927707266069743
4814,0.7012796460618802,0.9183547511446647
3158,0.8643445329178029,1.1986714705936663
7957,0.6085903427150688,1.7314825866134902
3123,0.723274788715199,1.3022117940632538
5454,0.37238292388083394,0.5922622787324162
4434,0.3710365378398289,0.5036046104151701
2438,1.1317304126020673,0.842513305914433
3855,0.6294092893943801,1.9951869448771797
7436,0.6014684993996058,0.8263975219341695
4126,0.20023752138978282,0.5995579538974966
3827,1.4848803251265115,1.1884667152797208
4323,1.0430338689879441,1.5217785535420385
7313,1.1776192590006016,1.1294697428545122
2592,1.176139625894732,1.6647975352902549
2220,0.6623748477752659,0.7192736144461337
3244,0.2580003789081708,0.42129641075440943
4005,1.0466475878970107,1.6658360997911605
2924,1.0687284565749364,1.1847175579299518
3504,0.1877950340305511,0.963916560542831
7735,0.8480686183679257,2.0129018036028605
6771,0.308640665370137,0.5642325002569133
5003,0.2979626740525109,0.6189889415419915
4631,1.1197888105218834,1.4798778420190872
3018,0.45626251774874677,1.1244186343917812
6523,0.1966346263681359,0.5791651156228056
4565,0.3537503799943882,0.5779822409667009
5401,0.531374921418354,0.9569208414401669
5141,0.535738308916504,0.6690913856248283
6189,0.22500579757699632,0.45370348939648436
4771,0.22881857121182467,0.5617265676597456
4235,0.7679761784129846,1.5488278128942488
4809,1.3274001261046968,0.9310750369194536
4934,1.4462755522883155,1.5011077392734782
7131,0.4271520785761989,0.5050886799562662
4417,0.152118441272023,0.5475673542700422
3830,1.2284065860523026,0.5579730077481957
5874,0.23301317033915547,0.3833724286828664
4518,0.5132545128178166,0.8552675758039924
4168,0.24414471781055025,0.3758770764920962
6329,0.6837472872864013,1.0969999466673235
5458,0.4920225516120733,0.6503615161185348
5799,0.9509371746203692,1.5298687138195355
6945,1.275103711222552,1.8916386749883127
4264,0.35376467979258475,0.5598380702943225
5948,1.2091034719141,1.0249430213033917
7678,0.674832849392545,1.1953682898233764
3702,1.145196668627737,1.335692162614619
7042,0.14853748500948732,0.5418963179662848
6680,1.3778596898819926,1.7811387007540294
3930,0.9349217582577488,1.8542754806870316
4694,0.16165699178955173,1.2430347843014098
6940,1.3260748783079779,1.881748124495816
4707,0.24368937211526764,0.5787721017857812
6381,1.3534946186868304,2.124193057532063
3516,0.6568217771570419,0.6338115472307932
3933,1.1365355542746094,2.2020619527275205
3928,1.062971840183155,1.6354834983750626
7186,0.26034731390323695,0.49032128490813853
3848,0.11928512639283162,0.5209280384050732
5194,1.2133879493355373,1.8336284748677802
3753,0.8913715646127871,1.290540615885137
6430,1.5507130607314064,1.5228614097000153
5585,0.7986893600160984,1.3798327423986896
6397,0.9456359907967773,2.339943597357499
7353,0.3608396541154556,0.6552714359031805
6412,0.5511132984357854,1.74562507336732
5371,0.622330680401561,0.9610103738074915
5325,0.3372645957961503,0.4147003871907082
5974,0.9179652287528365,1.83603427982751
6063,0.9481657008683281,1.683730861466419
6424,1.0816440605328463,1.8939018546320214
2440,0.9901475429766737,0.842513305914433
2067,0.2615855719885862,0.5395451587643858
3342,0.4200903643177826,0.7509415614240699
3941,0.8200079238206625,1.6277123994384959
3587,0.864146508717084,1.5035827024833943
5630,0.7165957323504425,1.4880896526432472
6539,0.7268079487229294,1.118777007266016
4391,0.8500420767166849,0.960083324401065
3286,0.12602031944612582,0.2626169605933069
4626,1.0459465375049661,1.5254557008943423
4755,0.14407919696342814,0.3010692866191313
4255,0.5523761029523316,0.6857785529924135
2691,0.1187422720521677,0.3556707338607171
4360,0.9474037282144125,1.3407674767746536
3390,0.41729528923807896,0.512284520178578
6872,0.8264294711126677,1.0502375335669722
4364,0.7153718228638554,1.7033088344469827
4970,1.119903507924187,1.7589772616052621
2902,0.8801717843186636,1.7813334256475517
3835,0.34376365393908426,0.39385668303668736
7432,0.4900841141029674,0.8709943106988632
2539,0.9201349626546843,1.4077018691144343
7696,1.6246311961763433,1.3875800954490305
5093,0.5530692735388172,0.6030082171068686
7392,0.2576621218562265,0.3123102892137509
6830,1.0071654889410804,1.4569064663339866
6239,0.6264903772269584,0.9908739681842691
6497,0.4452270338852766,0.4972281249172758
5360,0.8953498530482846,1.110682366912807
4664,1.023416248933072,1.598163653478923
6882,1.0259783520851549,0.935360720002761
6378,0.8964059538516829,1.866342661079808
5504,0.6194062989683021,1.909866039591006
3028,1.2745231220948066,1.1180986748011046
3731,1.0076025848387355,1.5874043374318367
7274,0.6645521542057993,1.2977704537120711
5173,1.0509676237120809,1.342741960702803
3421,0.9941189487509341,1.5776478372382277
7700,0.9078270155593005,0.8625245534403907
3406,0.620726338063927,1.0902410318689746
7913,0.7030994973074931,0.6240770139563292
3530,0.2011086648068815,0.4038407665223742
4412,0.26952301204110474,0.5825314420621645
6593,1.013966043289429,1.5847017613946366
4724,0.28419153246292067,0.7906905611091856
3858,1.0390817478810832,2.162725698359025
6188,0.25105115093663405,0.38862741066302053
3215,1.0564251142772374,1.2148414266490113
7108,0.6093847384397114,0.1974914754043595
4348,0.9624168924404304,1.7087023129042038
5446,0.7341930153259206,0.641110386005231
4386,1.2138614041295481,1.648783612496232
3330,0.4609061884593454,0.6799817102672103
2457,0.9751755480493368,0.9424979956941311
3813,0.5151688714543532,0.7987862363108719
4625,0.9893192978062356,1.5254557008943423
7921,0.24132671204979128,0.6680318237923671
5581,0.409371656095107,1.081331679873385
6891,0.6939036022307612,0.8057781427030596
5252,0.9172128188801171,1.2379136256669887
2260,1.3999503128516144,1.9617703581854402
3125,0.7363789260928145,1.3022117940632538
5562,0.6703858994871001,1.3752476614503624
3856,0.8468873390655254,2.2686519177710665
6201,0.07020694600415524,0.26494587450077195
6852,0.7532462655706279,0.9721487592509337
4344,1.0276032226110947,1.6991476399831025
7167,0.9340541222508386,1.241495647490095
3759,0.989924783760999,1.8350211602837256
4709,0.20323422986633805,0.5787721017857812
4462,0.12602031944612582,0.2855607289088629
6710,1.1676949972321307,1.8492361325076723
3353,0.5130180845763653,0.7915539722794073
4776,0.43036065155972153,0.9552490024340788
6492,0.24001899093650775,0.39754186483307125
4313,0.7248587294046298,1.7688957960430607
7300,0.8281892768959751,1.6613594924564006
6592,0.8186982228511038,1.5847017613946366
5884,0.1612201644029386,0.5747951413319479
5005,0.30963588417129634,0.6189889415419915
4844,0.6687718719840774,0.7969345707325052
5279,0.15817948315044245,0.6973057440328833
6095,1.1645906790599776,1.7817416127495014
2985,0.3890830174490777,0.479746527990276
7456,0.9274975282587234,1.130134773415251
3271,0.16474321428666447,0.46616447333429817
5642,1.102378352334006,1.5833325190958747
5177,0.9967056693185744,1.4356477287988558
4439,0.12328135844729243,0.3816115317717916
5825,1.0340141152575517,1.4448152176851101
4161,0.1161632790599385,0.3024669821909305
7485,0.552534046768306,1.3856988402775905
7020,1.1203540608758364,1.6673802965864482
5393,0.4174306419751016,0.9284735478253403
5221,0.892016535512705,1.7225704071675938
5518,0.7666804188307091,1.5684177206241694
2349,0.2736522163884421,1.3399511724857747
4233,0.8460477676144212,1.3823980267773985
3025,0.9102204344460746,1.1180986748011046
4985,0.09566884076259731,1.0802426828891571
4856,0.37540786586995406,0.7002505630083702
6264,0.5139315879508899,0.8653306053502512
2708,0.1537467145503687,0.27009492534612234
2337,0.8849939953223025,1.9769071792908888
5028,0.12328135844729243,0.41885974165206913
5086,0.7689844205218923,0.757497075009614
4852,0.34107851671043576,0.676771919470621
5011,0.28645232522188646,0.6297596570369268
6047,1.0459465375049661,1.8572596177098828
5655,0.6095177895965393,0.8607883882759846
6339,1.0660035817780522,1.8749635103396867
6573,0.8311463510818015,1.0278152748256624
2003,0.6128632730634102,1.8178023019640606
5066,0.38122757987051326,1.0255516170799388
5379,0.6887004431501805,0.9610103738074915
4143,0.17557469020752353,0.3899061043511837
6362,1.0014321206562729,1.9699111199399422
3280,0.18414382962701167,0.4087872807692981
6383,1.1052074334804458,1.9597237292995047
3929,0.9100315103865803,1.8156425315994573
3628,0.5864686211998534,0.7543682855602828
2467,0.4892318606372513,0.8957362831061934
6056,0.9883038743956423,1.6512125418126795
2155,0.8275492871240443,0.8483160849052003
6481,0.17120401918970415,0.3082966490761841
5511,1.0196033239464155,1.6721631705967328
6966,0.729126871368651,0.0
7737,0.7529332009754296,2.0129018036028605
3786,0.16785320355112834,0.9831959947191804
6420,0.7828268571968325,1.8939018546320214
4576,0.5058981619155366,1.1086496206675132
6096,1.2217866176951708,1.6440788594557563
7460,0.535877026350983,1.4220430330326572
7163,0.21576785443062443,0.7437418967476283
5646,1.062672482142363,1.2405330056027664
2881,1.1628853800566397,1.6127140689923494
5890,0.34971779792768,1.543284776217888
7708,0.3430804963985466,0.8625245534403907
1955,1.3445684107384126,2.2810960619329164
4568,0.36871783597054564,0.5779822409667009
2952,0.20124574060223482,0.562157728682879
3754,0.9302715037033035,1.3794533895359242
5690,1.292153242962972,1.6308473439033366
4912,1.2820553033395112,1.7445806756907463
4940,1.0048321831593612,1.4240972540473726
3889,1.0422307253992817,1.4831329787417162
6919,0.4709081006188303,1.1577816137050994
6276,0.8505569617572422,1.1427579601289077
4888,0.7880095297639352,1.8133270483679633
4263,0.2891466840782723,0.580532423926562
4246,0.7989817433950811,0.9178072300107832
3982,0.779112294351236,1.5001524074838968
2241,0.6430877054774801,1.0151992943768373
4551,0.7811956123144549,0.8515972036084262
4886,0.7348333017285124,1.1477877309986517
5615,0.7671883619265613,1.2975309697199815
6922,0.613514452742272,1.930842594714999
7358,0.25332779002569483,0.6537978054672331
7597,0.3241393701035157,0.6008404824177043
4164,0.12710417056514428,0.3024669821909305
2935,0.24070242515048637,0.8783970980214791
3768,0.9185808405469847,1.7117721017226781
5769,0.911398084296362,1.4753313689043017
3287,0.1031648498513338,0.2626169605933069
4163,0.1182489888477871,0.3024669821909305
5965,0.787258000615622,1.1980502635349597
4720,0.19849016120196467,0.684941054391489
4722,0.2466728897726555,0.7253817223903067
7327,0.18453950905522792,0.7771292411824633
7771,0.4538026195508151,1.6391689994682805
2544,0.9971617648805524,1.25719964895467
3351,0.4248890144822238,0.7915539722794073
3705,0.9324828232629112,1.335692162614619
7596,0.3700751432594758,0.6008404824177043
7660,0.9866307489900621,1.457108786699929
3849,0.14312090583388676,0.6457611825203114
4517,0.5530692735388172,1.0050402688127276
5284,0.20520370385903555,0.3509218845332379
6258,0.683427643579494,0.8653306053502512
4113,0.20478149267837442,0.5255440045664865
3275,0.35483711808766066,0.506194659981632
6740,0.16674844694927035,0.8811192550757699
7554,1.6071663153343438,2.598582999710136
1660,0.5337654427790981,1.5700583208386658
7466,1.6949994774177595,0.8976452261396715
5943,1.0502375335668586,1.2063247715071646
7459,0.6058898154756874,1.2019951113752536
2639,0.1936086303816523,0.8651907443923118
2767,0.7097819222257133,0.8125569908581133
7495,0.9910229962938314,1.1647465511372412
1959,0.7969211184069066,1.8710536529757589
2641,0.11180031291383999,0.8651907443923118
5616,0.7987871238481464,1.2975309697199815
4132,0.24004010229777462,0.24688961389214953
4883,0.6837463521542162,1.0703094598587177
5820,0.8687990607849585,1.8241329779448765
7549,1.6949994774177595,2.3915105010198885
7917,0.2179387487599144,0.5391159923124261
3010,0.2776482835347589,0.5774461011160135
4450,0.29786458269597516,0.437950823558514
3194,0.932890770076421,1.3756868213777544
7525,0.5134662724967818,1.1794315850409969
3132,0.8587998916876951,1.2695529556048868
7420,1.0462694478985894,0.8279448847004667
5176,0.7175889745552577,1.4356477287988558
7967,1.099810063157801,1.4176647906781643
7663,0.8903961283722379,1.4786684594172028
3723,1.2886592111609485,1.6056058877590795
5147,0.4052222088600881,0.8036306251744024
2799,1.0376592093171173,0.9624951626889761
5667,0.4611924648380618,0.8497386952394365
4652,1.0946341055892423,1.6177015472053724
6469,0.20836274034693417,0.5662964614215666
3086,0.6290440759285869,0.6508207340941314
2974,0.15450285431555716,0.23943109763282897
7311,1.679438245519263,1.2171563117075777
7011,1.473933135642447,1.9113456174344916
4239,1.1365355542746094,1.6874895649290012
7099,0.13932354099605745,0.0
1440,1.1443934690767672,1.9558046076983542
6359,0.6638954466118324,1.641312786725046
3386,0.3338088855468913,0.49750512788591444
7261,1.0644688628089238,1.7725371654274347
3226,0.1529651365754048,0.7979028314460905
2795,1.4601083702837112,1.5308626196263648
3752,0.8008877845177292,0.9917277125084307
5096,0.47030023083887085,0.6030082171068686
4184,0.8326184346054771,0.9945254441941009
7310,1.549905123767946,1.2171563117075777
7260,0.7337823069463059,1.7725371654274347
3558,0.8562359237673459,1.620427349074837
7603,0.29891413696008073,0.7902046143048899
2726,0.2821424394847693,0.5940932065121566
7718,0.5818646623676317,1.1354463550023006
6336,1.1878794589213924,2.0308602703535286
7123,0.23036749963173075,0.9603608305379426
4692,0.17420556933585962,1.2430347843014098
3689,1.0266248056549727,1.8399963156087322
5238,1.035094491458462,1.3467134728791124
7669,0.684773198615713,2.1161474626551984
7638,0.6366254270225803,1.5808431598451718
4216,0.6117349675673578,0.8784541592355227
2896,1.0765005099706055,1.7744850453279288
4819,0.43765465463478315,0.8918440777929836
2863,0.9133468471395401,1.790590390574994
3551,1.151439827791973,1.5771429653872935
5237,0.9279142962721185,1.3467134728791124
4204,0.7282595514290213,1.0191916161094072
7810,0.9743061179774685,1.4089657800222573
5505,0.8421045781399219,1.909866039591006
3613,0.6230194594531787,0.75749712661595
6437,0.7216329125361349,1.2159847055362716
2351,0.15320047194700537,1.3399511724857747
5861,1.0244943855278288,0.8882731021525325
7063,0.24807289571841043,0.7500420778613233
3334,0.6490942284852929,0.6461227625606909
3437,0.5812828135746756,1.0670294982393267
5032,0.21614706305219847,0.41885974165206913
5533,1.3264007811779768,2.424177573457889
6471,0.19432256544086915,0.5662964614215666
2779,0.6051314971243228,0.8728378254478932
4700,0.15981241202790733,0.7561488101211479
4959,1.2747909848515049,1.7873008824605647
3938,0.8446201500183336,1.6562526036499081
7672,0.6482534432239256,1.4620738729677736
2680,0.18487871142152723,0.40349850189496206
5996,0.808452083454443,1.2921981421177244
7756,0.7727548104627773,1.7398881025803696
5556,0.3666582520808344,0.9653319329173651
3999,0.8648987615915225,1.3728594110182966
3322,0.8796472562287428,0.8092813582490594
7654,0.8788674784905165,1.6437299230539681
4983,0.5032216016472119,1.0802426828891571
5094,0.5670907551564401,0.6030082171068686
6288,1.0259326951054422,1.34403539020104
7045,0.22692103814243986,0.3500456634875642
6996,1.8420424357228427,2.2987384875199814
3415,0.6353536192771447,1.3155346209268155
4453,0.5578820577529822,0.46189382293407494
4635,0.9142582859323904,1.4161466902223827
4907,0.9355654333995853,1.7445806756907463
5265,1.0048995168746602,0.8469578327996772
5104,0.5930906932483087,0.9211672363240546
4781,0.6955419152819696,1.2428284040354312
7318,0.6961390262027704,0.8886825517826792
4901,0.9100199484911189,1.3932031257328337
6352,1.0601685577569635,1.641312786725046
6635,0.7974908611650553,1.0769270518968694
4019,1.51241509312748,2.130630505160733
3878,1.0351766300554253,1.3845790132244344
3683,1.1370426921286083,1.8705767571423184
2818,0.36129961316769904,0.6693026509007073
2967,0.2876814052900627,0.2559074099720064
4271,0.38177895236215625,0.6526891645139268
6716,1.2198749959348614,1.8492361325076723
7175,0.7511595249400812,0.9252083642316596
4214,0.6832551720223682,0.8784541592355227
3709,0.703393927908159,1.3607824691092023
2761,0.5995589721487268,0.9282443128998391
5925,1.3013394054489176,1.8823568286424552
5682,1.0162920716544628,1.7661456724423843
4816,0.6684260203465141,0.8918440777929836
5848,0.2290540671587627,0.6398127694906783
6157,0.24123405208712953,0.6802701838034411
3407,0.7060676594632125,1.0902410318689746
5222,0.5256004425583756,1.7225704071675938
6319,0.3781261920325116,0.7892261234309611
2540,0.8636884308763559,1.4173195760201203
5163,0.4158426084046386,0.8153641182890741
7199,0.5202631209244624,1.0720963697035424
3852,0.3372151491737303,1.1461494385088147
1991,1.4726416775224465,2.022365344860813
7382,0.10433908728467602,0.33292003601568093
5605,1.0598209866947514,1.1643818867108227
6546,0.7002473044753555,0.9440514924069527
2541,0.6811320059108444,1.4447702003277376
4291,1.0318707606837036,1.538427573564808
6055,1.151203096229698,1.683730861466419
7022,0.9148265698557223,1.4685601697321937
7068,0.45783216699564483,0.5788269534166154
4185,0.8172202126233851,0.9645934802166567
2963,0.3728859470828858,0.6103258330841116
5258,0.7204649903616782,1.935951919191347
2426,0.32883350409882844,0.5589896419387619
3299,0.2004257449443277,0.4629233977612526
4999,0.21560224130952418,0.5014251915409026
3227,0.16839188874758873,0.7979028314460905
4744,0.18683153059090696,0.4434496499685089
4309,1.190092801242664,1.7404015445777534
6306,0.5611107164753419,0.5868957054720235
3197,0.5773058577625614,1.3756868213777544
2898,1.2642198190467326,1.7744850453279288
6246,0.8265920721048757,0.869669325803066
4563,0.38121096879721716,0.5779822409667009
3958,0.8976804331511363,1.7477210186143397
5950,1.1330439574722475,1.0107032054974465
2202,1.044684644977504,1.332955460803576
6925,1.2140044148742615,2.031509960602843
5297,0.2497622416775529,0.5582592838750119
7008,1.308463259328906,2.0220915697577286
7746,1.3526939747846445,1.3116766493136212
5081,0.6503097010236228,1.002641599627506
6485,0.18594165188122772,0.3289883490131063
7151,0.9047186344733446,1.1839938866856197
5906,1.1266584767336543,1.761639965836625
5247,1.1975158447512615,1.640997016156388
6776,0.14207742512618815,0.44320520973751715
7662,1.0495479053138244,1.4786684594172028
3985,1.07381175794664,1.615179839078684
7440,0.7021701319867232,0.7304480245517834
6108,0.8390326250807535,0.9979346983164384
4276,0.6977087752652992,0.9000683846603624
7521,0.7352012330177444,1.1794315850409969
7142,0.5483350046225747,1.0162446605987974
4097,0.12165899035529974,0.7262064805178523
3316,0.8359476995889568,0.8092813582490594
7635,0.64079505634778,1.55677317578442
4354,0.5504564384316547,1.2921546536192403
2916,1.09975166353764,1.692107989455986
3873,0.6590942245816149,1.4741217137113891
3646,0.8379252795180135,2.1788531827297843
3742,1.0443435575644588,1.2309512288596962
3059,0.4744801059202824,0.721525284576385
5071,0.7400965514125171,1.1182181957508333
4244,0.7077195538998023,0.9178072300107832
3570,1.044684644977504,1.844378705493448
2834,0.513648766459343,0.8755904764433614
6274,0.8539392214254423,1.1427579601289077
6349,1.3076049717975544,1.6516235474193959
3904,0.5248362517380856,1.3619453628142633
5831,1.0193753955050149,0.9571429800598203
6076,1.2628188483365699,1.4547531130471034
3216,0.8955720343218431,0.9292092359797647
2428,0.3349587790285703,0.5634377338571129
2373,0.3016326846577913,0.6413085836713549
7724,0.5159833467103894,1.173380093776883
6965,0.9775829232437763,0.0
3606,0.5156636270469048,1.1617993753216282
4142,0.17145530019708421,0.3467127728253343
6884,1.0186025256564541,0.935360720002761
3505,0.1285424209455612,0.963916560542831
4259,0.6080302909720594,0.5838463756355207
7948,0.5409928006653655,1.3020068505209104
2239,0.9523310512262669,0.9855277031738972
3537,0.45447863233579283,1.357503180790824
6344,0.5737284670855924,1.6516235474193959
4283,0.667678026120032,1.232044225162478
5091,0.7396596922652705,0.6891185718531332
4030,1.1645646980178708,1.612374558167753
6944,1.1829796003445703,1.8916386749883127
4810,1.1261737423837566,0.9304842103979158
5955,0.6148260564364049,1.0107032054974465
2550,1.0715382242769411,1.4011925074555964
3218,1.0784353312786676,0.9292092359797647
6658,0.8223902941099279,1.6371229804320913
5867,0.6209487713454803,0.8394241692557373
6788,0.49192412787508444,0.4055601714507878
2567,0.9402045318892581,1.8730793638909164
3329,0.5843328447942255,0.6836844909926519
3298,0.23599271964048393,0.4629233977612526
6576,0.8181143195771772,1.0278152748256624
5610,0.7229527559851314,1.1643818867108227
3891,0.9085613195690782,1.4831329787417162
5170,0.9101099458152858,1.3099638279979449
3864,0.6775620789868849,1.4195003613961248
6109,0.8634968243605182,0.9979346983164384
5526,0.7516933982505549,1.9738762519889579
4553,0.8496626095613109,0.7299182034896873
5212,1.0394491036619369,2.1570896996876225
4325,1.1462171811126194,1.3225023450217734
2341,1.0450768059474886,1.5106319884117814
5552,0.23202611388280983,0.5521443705610634
5261,0.6671130543045501,1.6203801093107237
4237,0.7491408758598412,1.6874895649290012
7750,0.9137953800738775,1.3244474509561575
4029,0.9282140458251853,1.6448281018021382
2774,0.6682381799268856,0.8148333703711808
3404,0.8256384167211894,1.0902410318689746
3263,0.17422664129694035,0.4930241289149585
4336,0.746024088957386,1.3418886773707206
6439,0.16215497443040058,1.2159847055362716
2382,0.49698871205969064,0.5620318044514564
3867,0.7774275493859829,1.4195003613961248
5519,0.7969211184069066,1.5684177206241694
3810,0.7629429991341581,0.790559061828303
4294,0.8295363246848891,1.4265164044768708
3142,0.6151293793667787,1.1842375697581404
4715,0.4122929325200932,0.684941054391489
7166,0.5326534135289085,1.1464567541231925
4687,0.9728266602619637,1.2787534981397908
4293,0.7850590413533678,1.4326155437228518
5816,1.030328755220312,1.7629283722354692
7564,1.5080953368299614,1.2830998591127785
5784,1.2475628388430224,1.2307856967452686
6048,1.1877220063169456,1.8572596177098828
6022,1.2135311024183038,1.6945624639920591
6647,0.9449111825230685,1.7798212817312766
6582,0.8631113933565769,1.4114681780339242
1768,0.24551125176788494,0.5288180085577765
4198,1.1697765997391074,1.2159416255510267
3378,0.34281696183488153,0.6438908922102774
6158,0.3016326846577913,0.6802701838034411
4968,1.1215878699606918,1.7589772616052621
4440,0.2023751407580033,0.37364458626602276
4373,0.8186982228511038,1.8600733395425753
7072,0.2236112142615488,0.4877560117491797
6386,0.6662641509066265,1.9597237292995047
3185,0.9684911310117971,1.6470290883624206
3744,0.9185808405469847,1.2309512288596962
2703,0.08683991796560485,0.3087592216335405
2081,0.24714087339922217,0.7081019556082796
4270,0.4178059429508127,0.6196526638841571
2951,0.2446867766330854,0.5386037752106289
4236,0.7492558605808953,1.6874895649290012
3354,0.4119703002556073,0.8579763761345353
5748,0.9084621538089025,1.9888686926297037
6950,0.9301571071899373,1.209297339779729
2236,0.5710031145765975,0.8363212397505869
2710,0.13976229233069365,0.3047133851162772
5548,0.5622013986290526,0.462458947341154
4529,0.6243180378629318,0.6616428302242674
3637,0.3387015124162349,1.3236621717361732
4730,0.2002144691030722,0.443288431676634
4913,1.1729380093199637,1.5982216577961466
2015,1.1726858542726812,1.2374534156241264
1792,0.5469082404055395,0.7380512542388057
3755,0.7847927005481946,1.6836971051409801
4797,1.6015348938503082,1.5270967174872587
7553,1.6358774649027485,2.598582999710136
4669,1.6814894417189838,2.2887294073268647
4350,0.8125569908571787,1.5188697315479067
2072,0.156334215866869,0.5330646690956956
5299,0.19663411494027835,0.5582592838750119
2284,0.961662071350184,1.8859851681313442
6737,0.1957379346952785,1.1250330402204878
4438,0.11742796290975095,0.3816115317717916
5202,1.2392332523890668,1.8462527095539925
7050,0.2367742944168589,0.3500456634875642
2340,0.9223287278812907,1.608459796029953
6315,0.3307481418303926,0.7540095807060266
6408,1.336425769966506,1.799989422510646
4649,0.7910513717740066,1.7213931973621615
6719,0.9629538095878917,2.4119469370210185
4751,0.1559680936418363,0.35394537599105175
6543,0.8287568910979652,0.9440514924069527
2821,0.3098716990686676,0.6813112657820422
6013,0.9277976937859532,1.743958950987135
7570,0.9498207251298396,1.2284094198612032
4253,0.7285479463306858,0.7392869241504124
7156,0.7117381500775414,0.7437418967476283
7951,0.5608531639447693,1.3020068505209104
3252,0.2675235268790743,0.6934776079678979
2681,0.22354105151624218,0.33907293074224837
5286,0.22226153570878124,0.3509218845332379
4851,0.33719225215810006,0.7002505630083702
6682,1.391994367926315,1.7811387007540294
2475,0.733580734399589,0.9240781885861832
2832,0.6846032302507343,0.8755904764433614
7601,0.1971529311969599,0.6848141401065883
5186,0.8872682023762901,1.6348257800632429
7277,0.9769923796948068,1.2977704537120711
5540,1.4979205874785502,0.9697807555713577
2982,0.18368499202973138,0.4035499301914989
6677,0.6289593210764302,1.7811387007540294
4217,0.3107033977687633,0.8784541592355227
5014,0.3155247764386109,0.6469406444042793
2600,0.750161944767482,1.5950104416399467
2007,0.7753246322703697,1.8193218691548891
7198,0.39521297550152246,1.0720963697035424
3912,1.1565344299238551,1.4121582759202258
2161,0.3387015124162349,0.9038847637919887
4895,0.9647529295566579,1.1599083095180762
3356,0.47925409648139095,1.1081696509468135
5883,0.16357909786902564,0.5656349735357641
4857,0.2700180202185363,0.7320813095210305
1697,0.7590566122719831,1.1975567466456705
6347,1.0384890916206628,1.6516235474193959
6651,1.084463591796796,1.840680469845003
6436,1.0353716404228142,1.2159847055362716
4036,0.9217637394271728,1.6392874200706682
7115,0.5208160094595103,0.476610044401382
4197,1.0509778517435688,1.220957685238321
4457,0.1501380262068552,0.38421128936476495
2482,0.5584885995545759,0.9810775691378728
7560,1.0703039023034984,1.2830998591127785
5878,0.4195894100628645,0.3833724286828664
2720,0.2566874873180776,0.49340547766612125
2392,0.17178438388563982,0.33816099548795103
2008,0.7841907979945003,1.4518710762191682
5694,0.7516933982505549,1.5508517229945082
2628,0.5070658999666153,1.2351643788333833
3791,0.26552878968692456,0.7343065346450359
2569,0.9507627388203215,1.8730793638909164
7171,0.4296125608556699,1.241495647490095
2342,1.0517895456939512,1.3749635722423277
6664,1.2908291835369299,1.2791404252031118
7543,0.9365001965987767,2.500197912082714
6883,1.2637465304607294,0.935360720002761
3562,0.7166341906372415,1.8054214577574406
2829,0.37390013366296965,0.8006589153691613
3262,0.1599357510025897,0.4930241289149585
5889,0.3252058739224853,1.1145482010825205
2427,0.29289436831024035,0.5634377338571129
3117,0.7272908772791299,1.1505129294490133
3302,0.2073966373982175,0.4629233977612526
2201,1.069923716685062,1.6833536720088003
7619,0.27373515978922136,0.8173562294758707
5447,0.7087342795176959,0.6093480600321545
5410,0.6353078202060072,0.9942232005531725
4007,1.266840281170153,1.8416590901237713
4295,0.9279142962721185,1.3893791357968424
2900,0.9337285527281616,1.7744850453279288
3670,0.8567058140158462,2.0803226685155427
4674,1.4979655179955753,1.713465154093136
3581,0.7495649859271835,1.5035827024833943
5137,0.43284206195162483,0.6032779348916926
4031,1.1833755959072825,1.612374558167753
2357,0.15981241202790733,0.8244896297416902
1595,1.47953140198846,1.8098353339221058
7572,1.5085310251217787,1.2284094198612032
3257,0.2893349143652915,0.6028436391692369
7417,0.571896765229801,0.9863133672406125
3524,0.260233375659482,0.5482554530517096
6910,0.42664905330985636,0.934783116173942
5417,0.5135819657850826,1.9608138826077988
3880,0.9873290485998976,1.3845790132244344
3807,0.2463777236346073,0.758034526618198
5513,0.7708354902139285,1.5684177206241694
4924,0.7731651157081258,1.6349808823771121
4349,0.8562915336443742,1.7087023129042038
2866,0.9829688890561004,1.790590390574994
2380,0.3783017944152224,0.6816591851496103
5606,0.8595346423496423,1.1643818867108227
2381,0.39315037894197485,0.601271744699469
7019,1.1927782400286766,1.6673802965864482
6687,0.4681435604818877,1.8174022972637935
5603,0.7608302502867264,1.1643818867108227
5367,0.8592226174146768,1.0620736120168393
3191,1.164362222909275,1.389501205130021
7552,1.5314383467528176,2.598582999710136
5205,0.8944109592448596,2.1318738580706875
3556,0.9379687580815792,1.6219923997237795
3518,0.24500351742055224,0.6338115472307932
5126,1.7048192806712876,2.0246560181618722
6952,1.3116115428000699,1.096376274775513
2906,1.10903620902268,2.077260194301213
6548,0.5721741983955927,0.9281253753320131
3321,0.7510205287534285,0.8300097975008575
7732,0.8792211277504424,2.228524874429209
5117,0.5995361915821013,1.7833851116078479
3148,1.0896770049529112,1.6014008449861188
3969,0.9973013541602003,1.471370322926401
7563,1.6190949606966587,1.2830998591127785
7661,1.0668430529520063,1.4786684594172028
4256,0.5021035392755052,0.6639616446138707
4833,0.9307071911732386,1.9778969146737182
7441,0.7543579620414795,0.7064451332119999
5296,0.21659808821731813,0.5582592838750119
5885,0.1808839499222525,0.6045510274246352
3743,1.069923716685062,1.2309512288596962
7946,0.43407239467093434,1.3020068505209104
5217,1.0227410575005091,1.7250422416487996
2525,0.5262396334673377,0.702241308283866
6317,0.4909361000353462,0.7892261234309611
7346,0.262375633295417,0.60980460698725
4119,0.3088265144495887,0.5462791747831424
3809,0.46474818260644635,0.790559061828303
6764,0.21485396611085403,0.6541405615402957
6398,0.6194062989683021,2.339943597357499
7582,0.4639380644626623,0.8203142289225246
5165,0.4056355887954503,1.1050620068520738
7532,1.2219900951484575,1.9713699491850363
2699,0.13282561436481644,0.3960960008034906
4824,0.515483488641704,0.9378678110895979
7046,0.31438965885383974,0.3500456634875642
5790,1.2113552833591152,1.5239194435193504
7350,0.2979626740525109,0.6444202992721919
7058,0.22838385440325704,0.6755812895246188
2507,0.5108547778574134,0.8210419214142808
3291,0.14699730755537826,0.3687040870323405
5963,0.5674155918439188,1.115865432998957
7015,1.2691560927460106,2.0220915697577286
3016,0.260052834917302,0.8229233017259997
7270,0.8592226174146764,1.3888644140166688
5754,1.2595307728743466,1.6983353196931117
3343,0.441632346077836,0.7277429176428605
2848,0.7908169482214715,1.5763987135268924
6905,0.5086113860820392,0.8612247037041182
6697,1.1156616257877117,1.6712690312114993
7118,0.14516819584725135,0.476610044401382
6547,0.7927221690476298,0.9281253753320131
6116,0.6244983382027689,0.9979346983164384
5386,1.1171929059440848,1.0338628176354898
6668,0.3499892307757768,1.1991172430596635
3932,1.0755296343678662,2.2280908424818993
4571,0.3537503799943882,0.7433428101657735
5865,0.4296125608556699,0.8394241692557373
3260,0.2002144691030722,0.5493669908249533
3863,0.8792211277504424,1.435438159340947
3734,0.6942611475729689,2.0646173766467584
2752,0.7168372079671458,0.7754646909032995
7157,0.6663375657216498,0.7437418967476283
4965,1.034568755787906,1.609288321325051
7621,0.2930457045086614,0.831335010647646
3443,0.558075702598097,1.4290747326647095
3937,0.9449602421775769,1.7239858339053225
6037,1.3113871268374295,2.2096843622703397
6350,0.6590942245816149,1.4581991262494278
4650,0.7501488287148732,1.6880618946159107
3870,0.9938696643363768,1.4195003613961248
5789,1.0831496096328477,1.5239194435193504
6963,0.8363051351782126,0.0
1984,0.9922655470326052,1.985617975400977
7320,0.1877950340305511,0.8886825517826792
7165,0.24181323619473954,0.8523050803829458
4673,1.7039206055587004,1.713465154093136
5384,0.5548286718796924,1.0338628176354898
4286,0.6732651981679865,1.7426202153095047
6829,1.2798255816093613,1.7021829470888583
5834,0.8528424622389358,0.9571429800598203
7375,0.26741917686955463,0.5087147121928818
3399,0.38683763034897684,0.900230209032809
4346,0.932843202600423,1.6991476399831025
5403,0.6417333595366782,0.8945965738402577
3259,0.25634971225483294,0.5501096679961408
6685,1.1143988841631491,1.8174022972637935
7040,0.17483549570274468,0.636208067322306
7910,1.2289785003078417,0.6240770139563292
3677,1.4500979785674764,2.193203120344072
6804,0.1975345729423604,0.28884680311244043
5647,1.0545754544254327,1.2117792580857822
6195,0.2446612761075223,0.43482945710113996
6825,0.732234875392963,1.6206928302080181
2566,0.8218266657074612,1.8445175882646536
5651,0.8229254894177366,1.126335306181084
6704,0.6902315394749137,1.6712690312114993
6821,0.2815823137072601,0.7972483933898408
4903,0.781897374699032,1.661439805788349
5619,0.7435736056441355,1.0701661664334647
3948,1.2290366012295566,1.6277123994384959
3251,0.2710420613175022,0.6934776079678979
5781,0.981336633955911,1.2307856967452686
