6764,0.21485396611085403,0.6899056153123947
7204,0.7556752592189895,0.5879985085047161
1922,0.5323286388103144,1.5199411622171255
6566,0.694850750987782,1.7320438092992583
2916,1.09975166353764,1.692107989455986
7333,0.27338426314990755,0.7740705800118336
6616,0.36595264450639886,0.6779105919812982
6057,1.0823806976216273,1.6512125418126795
6891,0.6939036022307612,1.1615739599656818
6261,0.7039691084939917,1.258997759291806
6927,1.458836229016949,2.523990490934381
6470,0.1810240718144668,0.594160003127888
5183,1.3045587883322862,1.6348257800632429
5975,0.7949438362262309,2.5899357066175828
7935,1.3253162358145947,1.996621523801313
5886,0.26343162049995056,2.0514964923345747
5956,0.427708334734566,1.6137258175631926
4571,0.3537503799943882,1.1357384492494293
6198,0.15132772557478455,0.8940602416877924
6958,0.9684911310117971,0.0
7169,0.5394942065709832,1.4856025282636536
5350,0.22082334037743007,1.3155831409799204
2622,1.0933842966577685,1.1552604600890182
7953,0.9231844077099043,2.282909995722161
6797,0.11467223370874023,1.050356787978522
5363,0.7505291550101635,1.9405327371074683
6234,0.7310568201887228,2.0397480696860653
5899,1.0457519162607418,1.6998264172616184
1421,1.0570337582302551,1.9549272078034863
1997,1.4529082100775699,1.8178023019640606
5204,0.831526785528581,2.04351349134712
7282,0.9337409155360641,1.7058790052237753
5553,0.2156320752392986,1.559879872161581
7739,0.7525713426910579,2.0756140484041468
5866,0.41348946959544947,0.8394241692557373
6854,0.8086562028480552,1.091661408562913
6197,0.16910912369139378,0.8168600258794999
7668,1.1454662092136274,2.261078115202207
6642,0.9681804477015625,2.058347413691344
4294,0.8295363246848891,1.4265164044768708
6918,0.4944866718608587,1.1577816137050994
4424,0.27510270704882894,0.4382834291116475
1883,0.7738233072106635,2.6166146390301384
7215,1.263023511827835,1.527414318367261
7369,0.21956635211041228,0.39423108574619325
5430,0.904982024462816,1.5022337322341652
5633,1.3147239070785206,1.9069975413128453
6264,0.5139315879508899,1.258997759291806
6183,0.18498328936635391,0.2980856504135638
1880,0.692238710204102,2.6166146390301384
6225,0.5003867245285468,2.2344209559581962
5134,0.9064852417682898,1.0679390986974935
6228,0.875939379997169,2.301543683306521
6360,1.110467317690079,1.681022794371811
5581,0.409371656095107,2.014072111394895
2277,1.3482423587275572,1.6721631705967541
7746,1.3526939747846445,1.3116766493136212
7202,0.7093647331175342,0.5879985085047161
6758,0.3345755942126939,0.6612483178023226
6276,0.8505569617572422,1.9012194723163962
5143,0.3760106740231841,0.7713793362696445
4846,0.5879292689441769,1.207767777115222
5943,1.0502375335668586,2.3747543448186406
6712,1.3363730143882824,1.8492361325076723
4391,0.8500420767166849,1.2913243481855583
6937,1.552522750961807,1.881748124495816
1727,0.9115774222901831,2.06420865550006
7670,0.6356069817327964,2.2241346210693007
5564,0.684773198615713,1.2839776901895152
4816,0.6684260203465141,1.2629496989410842
5809,0.9831499589698259,1.7718470123160177
6575,0.6486345390086058,1.405995000279083
7410,0.4996494350474575,1.2094256536192605
5600,0.6304506638752322,1.6764252241764963
6413,0.6674437118994466,1.74562507336732
7133,0.47229412190818154,1.243703393779823
6600,0.9465709567528369,1.6738446278968035
5596,0.7813280077631263,1.8213840767156375
7146,0.6703747213240094,2.0051998727305036
7437,0.49538678525795204,1.3162898765821152
1924,0.5544098476727218,1.5199411622171255
7184,0.2879126598758921,0.6231582533454363
7720,0.7586849363526641,1.8997364634917653
7541,0.8593468799494048,2.1099617844429512
3307,0.26325717911249213,2.0443922009811986
6140,0.32627254565630776,0.6447753691082428
6767,0.31892347387783093,0.653286510067363
7611,0.34256521915616867,0.9607343111041072
6045,0.9540516780713051,1.8572596177098828
7141,0.3825246206206261,1.3236901479071985
7950,0.5932659314622167,1.7099742672085982
7749,0.7351425763681586,1.3116766493136212
1176,0.3349155189354618,1.4329046983243825
1907,0.9100199484911189,1.3554889861748332
3292,0.15403309989175437,0.7079518829958562
388,0.2124910540061851,0.9797654965439435
7492,1.0177474232278911,1.9988446006091567
6017,0.7548969057556656,1.9036129441736938
6509,0.1397447877509623,1.0744621498561784
6326,0.5848080910721876,1.5572920872129776
6355,0.8870785789388681,1.641312786725046
6660,0.7269554089213832,1.328793294272254
5750,0.9527720630395357,2.0361673934255524
5871,0.30776753240852434,0.7121857371291375
1182,0.2579262189923768,0.9863331662021557
7858,0.724710404006118,1.506809501365021
6916,0.5451347890892476,1.1577816137050994
7936,0.8917393503372083,1.996621523801313
5578,0.17356510419609722,2.2343890373675714
7793,0.8072431845875788,1.154528381468393
7744,1.1654804600958295,1.3116766493136212
5955,0.6148260564364049,1.6063305154209377
7552,1.5314383467528176,2.598582999710136
6381,1.3534946186868304,2.124193057532063
5426,0.7656296140931612,1.6444150967687736
7375,0.26741917686955463,0.5087147121928818
6917,0.581138947939797,1.1577816137050994
6643,1.0664283709086122,2.058347413691344
5964,0.6604033442689624,1.927163988835977
7144,0.5265272268790766,1.7656775216952838
7673,1.1421237464055831,1.8847653903353028
7345,0.25176286717354057,0.5783020479286717
6067,1.0517895456939512,1.8950366438163717
5365,0.5408883867519877,1.9268711380705983
7595,0.6558765032728927,0.6008404824177043
7756,0.7727548104627773,2.29218334227244
6584,0.9690616586129145,1.9290399904225979
7406,0.6160946309309258,1.193235039802627
2492,1.0849431881120335,2.176256828473375
5201,0.9326220144253712,1.8462527095539925
7518,0.4085063511766784,1.4577293261161692
6921,0.4285681105635093,1.690633685743739
3303,0.23964566910227136,1.3763387829818396
5196,1.2207900968964522,1.7964364544320164
2932,0.20763035965692195,1.2126361754119448
6209,0.14355199831756724,0.6590284208500192
7614,0.674832849392545,0.8173562294758707
6562,0.5991671034312964,1.6793848100791098
6491,0.21304673574182936,0.39740075869563607
2099,0.14080644208785223,0.0
6380,1.122704977991315,1.946411983691174
5428,0.7701151427308065,1.5464706768726564
5648,0.817703585583517,1.7740148134450546
6087,0.8801717843186636,1.4444209980258043
6103,1.079817901069096,2.423261980287104
5635,0.8339022166013337,1.9069975413128453
6328,0.6804407341032697,1.642615785763537
5697,0.5515344292999262,1.6308473439033366
6391,1.0462694478985912,2.0009850882799443
6054,1.0459422052433338,1.693106481974191
6425,1.233920124846598,1.8939018546320214
4579,0.9178935773521804,1.5843276468301604
5636,0.7774275493859829,1.9069975413128453
5227,0.7606414650648664,1.7225704071675938
7158,0.5995589721487268,0.8222907672641796
4399,0.1367324015564325,1.290372054317213
2485,0.5264679332538129,2.159562034000239
1895,1.5043374878267972,1.604650483784352
6986,0.9482910198003316,2.064679122909664
7638,0.6366254270225803,1.7694639357373572
7413,0.3351990591159103,1.2094256536192605
7035,0.11398879169505031,1.1079517532074121
7430,0.6595660724168552,1.5932350994909605
235,1.158835029509119,2.0768692001525233
6450,0.13543662534437315,0.4075566332088904
6751,0.2285474097348307,0.5485083437476522
6618,0.29558504719484757,0.6779105919812982
7649,1.1650553613280943,1.5912393771858269
7624,0.41399349588011336,1.2484921784940355
7725,0.5426581626703033,1.8997364634917653
6229,0.9542051433515922,2.298232542907542
6857,0.6736706991849157,0.9768681276654968
7066,0.4459938693253198,0.7317911207914923
4304,0.7473959846716524,1.6477765537218558
6120,0.9665578662668591,1.513789561588776
5504,0.6194062989683021,1.909866039591006
5554,0.3815200692354609,1.5691670171590624
5869,0.5023586876395753,0.8280099846229473
7327,0.18453950905522792,1.0831704275195468
6478,0.18487871142152723,0.3082966490761841
1874,0.8792343012421633,2.5227629460231915
5546,0.7949811392416237,0.9019921868823162
5458,0.4920225516120733,1.0545049227957892
5780,1.062668663976819,1.2307856967452686
6319,0.3781261920325116,0.9632692446824876
2505,0.6797978494202964,1.2402444843714073
533,1.013081457233191,2.030484572038319
5906,1.1266584767336543,1.761639965836625
5338,0.15153861478835792,0.7527865490625578
7355,0.35297943112653696,0.701473307281401
6138,0.29176864138271846,0.7217373984078476
5754,1.2595307728743466,1.6983353196931117
7661,1.0668430529520063,1.602282380142638
2005,0.5695584965412025,1.8616580997636267
6226,0.5142425961005199,2.259237712427775
7190,0.440061028725182,0.5256042627219664
7287,0.520272625539129,1.675110396398478
3317,0.6983072348126047,1.8495785334495836
6456,0.30562116704249664,0.4075566332088904
4431,0.2634729450468761,0.48266790682787303
3773,0.8942519348233106,1.8178761403178103
472,0.31629007931413905,0.7346287587321775
3103,0.31723365589361874,1.0073849502965504
6150,0.2239882662385079,0.3732534915972545
5208,1.0148496078861058,2.165978088518684
5377,0.7480168578687996,1.3711760143769418
7519,0.7347966616602266,1.6622795982079095
6802,0.154354884608911,1.055524635597459
3987,1.1994835177968115,1.615179839078684
6205,0.10493443601666838,0.9826841350007475
6358,1.15128238699507,1.641312786725046
3606,0.5156636270469048,1.594892616631291
7347,0.2676050096971372,0.6647491693236923
4425,0.20493603852348752,0.4382834291116475
6740,0.16674844694927035,1.1867979898232655
7626,0.35723446856656826,1.6220474791038162
345,0.26200495851995353,0.4786339284708735
7054,0.21620012966707808,0.46914320081000854
5637,0.7961659159416287,1.8929828655882337
7288,0.5647839033045062,1.675110396398478
6236,0.8170332931941962,2.1521208313195244
6124,0.864505496419609,1.4957675391067502
6947,1.2905080624453937,1.9084737999993229
5685,0.7107691938012127,1.6776117883300088
1890,0.7525713426910579,2.3632194407239537
6838,0.8005230905460906,1.6515905879259716
7087,0.5401788852226038,0.5239689293071002
4646,0.6757457582921298,1.7217986109438543
6861,0.8018454186322156,0.9768681276654968
6196,0.20584334021225784,0.7410446699052311
7805,0.7984633195552234,1.4089657800222573
470,0.48046330285734085,0.6917113331450949
5573,0.3710298348008852,0.7445303704103454
5292,0.1961727620516612,0.5290415266990287
7796,0.7659962108526577,1.0942211391086092
7166,0.5326534135289085,1.4616367311560274
6218,0.25235420220323157,0.9147760190811811
5512,0.8626599906897977,1.5684177206241694
5445,0.6382803619957756,1.1905908579711695
7324,0.13745752985225318,1.2425657759772566
6711,1.3080187471468732,1.8492361325076723
7671,0.5582204780487299,2.261078115202207
5395,0.7021701319867232,1.306816952343011
5761,0.9353031712222548,1.6593458412377706
6272,0.9211766430835839,1.8752303494138685
6991,1.1413307239466517,2.2970897473624805
7109,0.7586849363526641,1.328831905217807
1270,0.5438427195490542,1.679522308614947
4695,0.15838062662963784,1.3394557171594554
5441,0.7118890588811133,1.1981408122758708
6362,1.0014321206562729,1.9699111199399422
7593,0.7524923033522555,0.6008404824177043
5401,0.531374921418354,1.2996979479091764
7082,0.2109162632265924,0.4918871675259987
6543,0.8287568910979652,2.1536318353196853
6826,0.7804825421194157,2.0369575376953093
6556,0.6787747457716472,1.7365086410985906
5784,1.2475628388430224,1.2307856967452686
7408,0.6359703519218931,1.193235039802627
7046,0.31438965885383974,0.3500456634875642
6465,0.3345275104254527,0.5662964614215666
5851,0.31810506379351533,1.3805953942901215
5879,0.2925431711395857,0.5690244048639584
3124,0.7375370584239249,1.3022117940632538
5849,0.21234926086519454,1.277179910355972
6747,0.31751795720129355,0.5485083437476522
4823,0.6237962365836255,1.8533219911008696
6177,0.14243767586627504,0.24244241048286747
6529,0.32493580328712696,2.3396981324961383
5299,0.19663411494027835,0.5582592838750119
7457,0.7867284128112629,1.7694956600352347
6828,1.0173491240031398,2.0369575376953093
2920,1.0028896371213063,1.7475800443484246
5176,0.7175889745552577,2.0224372161774906
2004,0.7548969057556656,1.8178023019640606
3838,0.2793682376756441,0.39385668303668736
3610,0.812372232910392,1.2574261940248939
5269,0.2962722382464692,1.1908218485709814
4157,0.1345479613243377,0.8993146635775086
5431,0.9330112789280848,1.5022337322341652
6829,1.2798255816093613,2.0369575376953093
6819,0.18505977001080284,1.5969644239396954
5066,0.38122757987051326,2.262662409886751
3972,1.4065259467477195e-15,1.2397824381372349
7289,0.8643187741937527,1.675110396398478
1022,0.7706764036122326,2.6188093941133292
7706,0.7144783025706815,1.085888757943089
6440,0.10381101541995726,1.3064093762510751
7303,1.0307802993759325,2.632145121125299
7112,0.7491708839822898,1.328831905217807
5850,0.19272417371053643,1.3805953942901215
7007,1.3686185103730433,2.0220915697577286
7376,0.2600346762432205,0.5087147121928818
54,0.1712345844993377,0.32619255220782006
5309,0.23754593551641007,0.3573410191846565
5589,0.4864318725366141,1.3798327423986896
5407,0.5238195953119616,1.901198187236952
7113,0.793192678142795,1.328831905217807
5438,0.46863684970762653,1.3490868517168635
7731,0.8429084547981451,2.2719473645687023
6370,1.1458662420643042,1.9292230568012152
6291,0.9829688890561001,1.5556319961357867
5582,0.5083315740394838,1.8785646714498077
7368,0.2131097505174356,0.40589055085899395
6283,0.9964157230715605,1.9255151268650417
7196,0.28229380061882414,0.5778497937859569
7701,0.8817348704466332,1.2066997714808214
6734,0.14472790042701952,1.2839666104373286
7044,0.29558504719484757,0.39221649899766
5343,0.22686760248461477,0.7279369511319425
4573,0.42424691777514717,1.193329091403614
6688,0.9501872390123003,2.0053502452649323
5583,0.8067042726307737,1.6703998659561694
6896,0.47641365748469305,1.131301726488809
7438,0.4850816258341488,1.2047625820140626
6119,0.7171527128264398,1.513789561588776
6330,0.6778237875363878,1.80319842407667
6999,1.3055376150832458,2.2987384875199814
6580,0.48111950480633575,1.8090165188201388
6222,0.18429629482126553,2.0229265249945434
5621,0.7724992273619418,1.8256184615621496
6009,0.7933844198196299,1.6660802505178336
6608,0.6430877054774801,0.9311037763641726
5187,1.0605393032924606,1.6348257800632429
6648,0.9426661504171818,2.098846354830795
5641,0.9790013192049098,2.1045809279887226
7212,0.5959131933044796,1.4704324088805512
3314,0.7742224542577492,1.9649912156222464
3122,0.9344149813496373,1.3022117940632538
2915,1.2261467980927188,1.692107989455986
7610,0.15218375055739108,0.9607343111041072
5619,0.7435736056441355,1.8353641749867917
5336,0.12495884704840067,0.8707405971470186
6982,1.3579340276847522,2.064679122909664
2500,1.0046455195539763,1.6307328243363608
7916,0.4486015407176236,0.6240770139563292
7941,0.5499020673742426,1.4185306613923865
7332,0.13782209414397173,0.8351674216125357
7268,0.5256004425583756,1.7725371654274347
3425,1.161692242270802,1.6621822878951826
7549,1.6949994774177595,2.6132611509171157
7714,0.5081549586578371,1.5084701738988158
4808,1.2597346478949338,1.7898029097383947
6117,0.45944951756386293,1.4618880025212775
5935,0.8770580193070305,2.305492074142924
6300,0.967196240450818,1.2417298855533525
5446,0.7341930153259206,1.1325039974013773
5913,0.7873605753018306,1.6197589630883291
7095,0.10011402779898856,0.7996982822012187
7581,0.5248362517380856,1.2697734651876587
5242,0.9738650377164135,1.377996974203015
6078,1.360063417574519,1.4441823960483224
7394,0.2798304796171283,0.7909688990231184
3068,0.34288208482995686,1.7729695524968223
6744,0.23123196640162402,0.5775652544183757
6996,1.8420424357228427,2.2987384875199814
6398,0.6194062989683021,2.368826103380378
5584,0.6798870693480529,1.5135077964463737
6597,0.9320953437417183,1.9244650457585908
7183,0.37200021006623285,0.6231582533454363
5531,0.37847673659558556,2.5108460379097064
5644,1.1369373288808124,2.298627532580154
3018,0.45626251774874677,2.5000799839956582
6755,0.36230818869666465,0.6022910662602392
1878,0.7600457496014982,2.566324809586001
5200,1.1370426921286083,1.8462527095539925
5593,1.023416248933072,1.3798327423986896
5218,1.1037985455644308,1.7250422416487996
6318,0.4648937286735463,0.9632692446824876
6659,0.9583952309194764,1.328793294272254
5114,0.8339807443155532,2.39139676042955
60,0.22352434084978912,0.3474929864031623
7942,0.861556977782918,1.4185306613923865
6785,0.2132510879379213,0.4055601714507878
6249,0.5487029760933274,1.7168542753041958
6528,0.29299900230261594,2.233928403294772
7210,0.3718116164803035,1.086585853521956
1896,1.442368396901147,1.5641864054255028
7972,0.8758801756961178,1.4176647906781643
230,1.2936440160611802,2.016919189106106
6459,0.1670359225577355,0.440687659282637
6716,1.2198749959348614,1.8492361325076723
6967,0.8443867258909646,0.0
5198,1.1508341619204552,1.8336284748677802
6260,0.8150360595981272,1.258997759291806
7291,1.0980717612042399,1.675110396398478
5282,0.21746609072290343,0.3509218845332379
6922,0.613514452742272,1.930842594714999
4163,0.1182489888477871,1.0200312106256901
1706,1.4386265253821282,2.2404819052274996
5067,0.469027470859778,2.0970176365320845
5843,0.13135130829057542,1.3110767606777798
4203,0.696949457048256,1.8656872174136738
6378,0.8964059538516829,1.866342661079808
6279,0.8172202126233851,1.9255151268650417
4400,0.13717950151542382,1.1400966739554004
7422,0.7340137768224169,1.1479405707963768
6534,0.7363885301430669,2.0931380000315207
6591,1.3397490155005776,1.5847017613946366
6194,0.3010202522237568,0.47514332018533906
2627,0.6609032742486133,1.3438772035053792
6887,0.6947387981484392,1.6435613576991555
6920,0.4139552640203207,1.1577816137050994
6972,0.7148514903297604,1.543980074443597
6494,0.21542005175795859,0.4972281249172758
6181,0.1106638151648942,0.26114312826123415
7470,1.6801495081906412,1.4388018222324541
36,0.3064892943367778,0.6771721459888241
3985,1.07381175794664,1.615179839078684
5949,1.233715408674793,1.6815863021423918
6680,1.3778596898819926,1.7811387007540294
5555,0.3098688794183558,1.6349203055454562
1674,0.7226892346472173,1.8545865557964716
6052,1.0564085680892372,1.8710536529757478
7687,0.6908266639752405,2.4036930337367433
7432,0.4900841141029674,1.4855042300531065
5409,0.6247359683979119,1.9888857730914284
4815,0.7475090494269779,1.316782213008606
3312,0.6827587448385875,2.0443922009811986
2489,1.153358379427811,2.6465739053254014
5832,0.8731264761175034,1.5021064109705016
220,1.3418319328454356,1.9837413742793855
4224,0.5559766838069727,1.9136272932523122
7453,0.6359703519218931,1.4364266618930817
6243,0.7548027725620678,1.7199377101588202
5163,0.4158426084046386,1.2271833111740302
6232,1.042010247005589,2.0397480696860653
6945,1.275103711222552,2.0200311941196403
7948,0.5409928006653655,1.4185306613923865
6176,0.12226537165972717,0.24244241048286747
5399,0.44273477788592425,1.2996979479091764
5579,0.19234088870474245,2.0440407223343593
6048,1.1877220063169456,1.8572596177098828
6733,0.1905479524866507,1.2839666104373286
7718,0.5818646623676317,1.7306523025465481
5785,1.1149563831131901,1.2307856967452686
5829,0.9868841035401459,1.7139315000066966
6863,0.4689978231300331,1.0990734897498646
4692,0.17420556933585962,1.3652257637183398
6517,0.2545303497061728,0.8498229926490448
7859,1.097279761232839,1.4561111519362684
2098,0.1387275332204791,0.0
6677,0.6289593210764302,1.7811387007540294
6258,0.683427643579494,1.5454551219534154
7767,0.7809727585683404,1.5780110146225326
2273,1.575112796790011,1.6721631705967541
7352,0.3235890975393979,0.786488860994536
236,0.8782558008812882,2.14011977561368
5986,1.2239066860205092,1.6603862348596592
6621,0.3873243725544545,0.68553379049922
1829,1.37808906472108,1.3769092185342386
5388,0.6000369184427267,1.7350797520721768
5224,0.8347938137427282,1.8362200419688608
4835,0.8592226174146769,2.2075333714934993
5936,0.9529516818617924,2.305492074142924
5627,0.6043988259786621,1.8256184615621496
5367,0.8592226174146768,1.7866310852303495
5447,0.7087342795176959,1.113273639980088
5514,0.5551811846453683,1.5684177206241694
7743,1.1481063353300964,1.3369160739722847
4302,0.9451952767290852,1.426516404476863
6080,0.7442923965454844,1.4441823960483224
5923,1.223563651627985,1.8823568286424552
6679,0.7669880710217472,1.7811387007540294
2094,0.20174454922037316,0.0
7170,0.37427111948708697,1.4856025282636536
7511,1.0917576783170506,1.887057700307463
1330,0.5819321567445667,1.0964194496795616
1184,0.3136504186596653,0.7804899034472746
5153,0.49425969899948347,1.1630789195376896
2934,0.26753887515296076,1.2351098690869888
2935,0.24070242515048637,1.2126361754119448
7949,0.44494138989547216,1.430620655266454
6593,1.013966043289429,1.5847017613946366
6088,0.7418505330628334,1.4645485296884377
5841,0.1270622087671316,1.3914120656415925
6482,0.1480970573184037,0.3082966490761841
7674,0.8621971632944264,1.8847653903353028
3538,0.4802753326322791,1.9590911184029984
6242,0.7442367186823475,2.1920896862252555
5875,0.23211027503070553,0.5690244048639584
1326,0.5510978089197432,1.2549582328458138
5215,1.475582673529296,1.7250422416487996
6923,1.1707002317347484,2.0735046580006835
1716,1.2686845720753794,2.2181580012188755
5965,0.787258000615622,1.9543039044651482
6886,0.6629317662939952,1.7174697569362931
6650,0.9506938804798662,2.098846354830795
2008,0.7841907979945003,1.8926127456252868
7472,1.0572787646311466,1.4388018222324541
7452,0.5341772426882966,1.3618866015332936
6481,0.17120401918970415,0.3082966490761841
6655,0.8176857443381577,1.8988048697057212
7556,1.6663103106786086,2.598582999710136
6068,1.014425680862491,1.695469286879628
7423,0.7430347475648216,1.1479405707963768
5070,0.6827587448385875,2.195431913758211
7474,0.4385192200890407,1.4388018222324541
5392,0.6547434064569583,1.3719644704085283
2696,0.41198474720890516,0.444493975474298
6700,0.9944903161976941,1.9527740054341451
5366,0.7023139394250555,1.8668268443767126
5632,1.0692299027332124,1.9069975413128453
1329,0.5131017757926027,1.1990394447335173
3953,0.8014258926069515,1.7983152870477819
6387,0.9828842250512907,1.9958861131532397
5231,0.8711999077536248,1.4287034752080519
6390,1.337112534581506,2.0009850882799443
3956,0.8743611960674241,1.731311906513273
5247,1.1975158447512615,1.640997016156388
1271,0.5394605897142349,1.6845815962067785
4647,0.6187030854736775,1.7217986109438543
4689,0.9078695567649144,1.4544699121493252
6773,0.17081436034965292,0.47069842525603
5317,0.1388465308680148,0.3573410191846565
6071,1.2812382347687299,1.695469286879628
5499,0.5522423273669327,1.9477357248638785
3540,0.44844766733309105,1.9590911184029984
7443,0.627388610426056,1.129090490465993
7027,0.937756967785424,1.2404032655416404
5379,0.6887004431501805,1.4719346263778033
3096,0.4830221160628036,0.8342155196944284
7708,0.3430804963985466,1.2815838430209627
6310,0.5057934335805303,0.9632692446824876
6954,0.6800023838829952,0.0
6298,0.7375840863656256,1.4699124412840396
6051,1.0763553475237484,1.8710536529757478
19,0.18994429632884455,0.7025164966931149
7067,0.45283694601899904,0.6111651654147835
7122,0.2502451445914396,1.8083096525590272
6429,1.147793072210392,2.1332695975503846
5108,0.8274111758566812,2.226590827059001
4428,0.16570040877019349,0.4382834291116475
7594,1.0574436470780286,0.6008404824177043
3973,2.9822716984172073e-15,1.2397824381372349
2634,0.6639087726380142,1.1735351980572837
3959,1.1412656905250955,1.7477210186143397
6848,0.6620083532566767,1.2904064663985664
7770,0.8014852316245477,1.5780110146225326
6446,0.11870960958018358,0.8772434952863716
5406,0.45667574846671094,1.814607318044214
7537,0.9776288064824883,1.950085704790929
3289,0.11689570868251253,0.9840253104527831
6885,0.7156361880855447,1.7898317090268159
6513,0.1914767785850394,0.9396679733279821
6365,1.3618375782722314,2.018578096597986
6770,0.3293221282338589,0.5642325002569133
5170,0.9101099458152858,1.8556035760390155
6145,0.2731925992868959,0.3732534915972545
2691,0.1187422720521677,0.3556707338607171
5508,1.174238544628255,1.704335987877158
5412,0.49755481210098307,2.0155617438888065
5408,0.7159190119986404,1.9308027545080226
5254,0.9268776355066652,1.2379136256669887
6002,0.5979182368125892,1.5207507232617576
7623,0.36297293255070595,1.2484921784940355
6399,1.194772605627975,2.4014281698249738
5853,0.45763424129475994,1.416027661366522
6311,0.5232081170101042,0.9487076359356441
2275,1.9990760324822499,1.6721631705967541
7176,1.241296928814875,0.7120147923809715
6131,0.3452178610226094,1.3353747713257489
7512,0.8417852054877784,1.887057700307463
6851,0.6655498604340819,1.2362948999887367
7656,1.1361972844891322,1.6437299230539681
7544,1.0142998008434898,2.6132611509171157
6431,1.0971594562213227,1.5918490790505295
5278,0.14769143248485714,0.8058871434041315
6771,0.308640665370137,0.5642325002569133
4436,0.24006346111797333,0.4209917912116991
6187,0.20208052234860344,0.2980856504135638
5313,0.14531655000019444,0.3528399755182622
5258,0.7204649903616782,1.9946342339690022
6656,0.8716554296949734,1.8988048697057212
6041,1.305657752400355,1.8621183730090989
7526,0.5105683811320343,1.6756632061048369
3789,0.27332288387541587,1.3961429651886188
5120,1.042968286293499,2.3422422439232093
2698,0.28895536998590526,0.444493975474298
7119,0.1638754632252624,1.6368295924042122
6460,0.23818497855322301,0.5643869347442828
1868,0.9325048082403122,2.1931776240866374
7664,1.1774471596280975,1.2209597441706117
6162,0.22185502929491074,0.7903257224631894
5796,0.7541516823637443,1.5017231184879913
4844,0.6687718719840774,1.5236941693235464
5962,0.6034081687198297,1.7873834323156883
6099,1.1829796003445712,2.411660761211941
7977,0.4592835496270285,1.4176647906781643
6507,0.13774533743416742,1.0744621498561784
1984,0.9922655470326052,2.10861031062587
7362,0.2232722008196545,0.41778845550743476
6455,0.2725279396249322,0.4075566332088904
6474,0.23992993401402304,0.3183005433775144
7083,0.20066922325438238,0.5217573263370716
229,1.1761466680283712,2.016919189106106
2496,1.09078910340089,2.023559889962281
6787,0.3248212900624357,0.4055601714507878
1994,1.2022279093261121,1.8178023019640606
5109,0.8860680849218578,2.3266244444233215
3963,0.7911464611748292,1.6305795419716471
5616,0.7987871238481464,1.9136320933139441
6627,0.3038064850110745,1.1769363355769495
7032,0.1354719746035738,1.29502461562555
4164,0.12710417056514428,1.0102010990344454
6356,0.8279835618670118,1.641312786725046
5545,0.7918033326954688,0.9019921868823162
4450,0.29786458269597516,0.437950823558514
1072,0.5769711708834699,1.6444714677908043
7527,0.7064510561952456,1.9447915122802781
6588,0.845154254728516,1.5847017613946366
7636,0.468996442079551,1.8171196625800163
4677,0.9204843231689344,1.67625419042041
5237,0.9279142962721185,1.3467134728791124
6612,0.4589961230252928,0.7508159883920347
5945,0.7265272520539273,2.1029647495904706
6342,1.2379136256669845,1.6516235474193959
7107,0.38248707596820786,1.6569614037156764
7148,1.0936088016787646,1.7690989722711017
5948,1.2091034719141,1.8239542176589556
7564,1.5080953368299614,1.6362616489760182
5766,0.7679166916273809,1.956048546325929
6953,1.2984487398350428,0.0
5357,0.45626251774874677,2.018825996976408
7206,0.43901464285260017,0.5879985085047161
4427,0.21377191180196195,0.4382834291116475
5381,0.414956617083698,1.9003935997548695
7061,0.24733262568069186,0.7405533935047282
6776,0.14207742512618815,0.44320520973751715
7683,0.5530700588013435,2.1639038722319897
7635,0.64079505634778,1.869956586538738
6956,0.9305521167866725,0.0
7088,0.5007778345704736,0.5239689293071002
3290,0.14020306968323207,0.9533841605743982
3965,0.9782782717129054,1.5508517229945162
2487,0.6174201043944347,2.5207769440366774
7572,1.5085310251217787,1.5804758460193267
4842,1.0395003996088468,1.5960997606470866
6912,0.8842700544883194,1.1085459640708824
7037,0.11870960958018358,0.8153493205311321
5425,0.9025434707148783,1.7000523555717526
6719,0.9629538095878917,2.4119469370210185
3607,0.5083384902249446,1.594892616631291
4159,0.12815924527494058,1.0116743338249385
6502,0.1345479613243377,0.8681973072606335
2822,0.31455966088819315,0.6827205246186221
4651,0.9426504735894379,1.6563216331522117
5347,0.16531460413637625,0.9550335249537597
5655,0.6095177895965393,1.4742348942569643
7613,0.8870836060222745,0.9607343111041072
6101,0.7223836528333316,2.423261980287104
7665,0.8631331635194833,1.2209597441706117
7150,1.0816422230203988,1.5382466000177037
6772,0.2543503398461844,0.4802825675354634
7436,0.6014684993996058,1.3548804145522106
233,1.2464179632291863,2.016919189106106
2874,0.9347665558177441,1.6127140689923494
7742,1.02107826508623,1.3369160739722847
5904,0.931292227145663,1.6723582615330321
5354,0.2715525466244523,1.8594683158268845
7905,1.2341255881251108,1.7478765726775256
2621,1.3104202446352888,1.1552604600890182
6233,0.7869260268398404,2.0397480696860653
7798,0.8412406416068087,1.0942211391086092
761,0.3375744101565555,0.8798100960453814
7328,0.19488857218074868,0.919387019996103
3979,0.9739395762368016,1.2397824381372349
5386,1.1171929059440848,2.029858673266522
5281,0.13782209414397173,0.3509218845332379
5922,1.3264983432059645,1.8857531823490685
463,0.4933728580442592,0.9937366290426604
7440,0.7021701319867232,1.129090490465993
5651,0.8229254894177366,1.6702959040765604
6106,0.951641221747567,1.9644426527956758
7766,0.7063974773855959,1.5780110146225326
6163,0.1983693660502211,0.7920769564001667
5436,0.5407973502969652,1.5022337322341652
7516,1.3494678195641316,1.4577293261161692
3092,0.3745006936620092,0.8342155196944284
6948,1.2214355395214958,1.4944290911467248
7911,1.1132974088643222,0.6240770139563292
2937,0.2705998161350125,0.7214160486829657
5146,0.43196987261233766,0.8036306251744024
6125,1.2341469845983102,1.4957675391067502
217,1.4848803251265115,1.9837413742793855
4152,0.3899061043510493,0.40174001105647394
7760,0.7998808043592628,2.0767020567238745
5300,0.13488760503395425,0.5582592838750119
6405,1.5188697315478852,1.8118232991408918
5687,1.2257956109006518,1.6349863236376299
6265,0.4766947910623629,1.258997759291806
5855,0.3864085041138535,1.4896630787342207
6626,0.46863684970762653,1.1441116983266102
5575,0.1640561223929263,1.4940056020604346
5572,1.1155684016249192,0.7445303704103454
2917,1.094441907842561,1.692107989455986
5854,0.42930956625792055,1.416027661366522
5908,0.8626599906897977,1.8556004182758579
4853,0.6331202104175664,0.9082024577382254
5346,0.19563885295281946,0.9335326426430403
7530,1.4066791027091383,2.2632878003488655
6464,0.2891466840782723,0.5809460425724283
6907,0.3625723565090941,0.9318421271942015
5323,0.4572965495133389,0.4147003871907082
2108,0.3357951406519405,0.38490980253898593
5405,0.414956617083698,1.6273119293626177
6314,0.3544332687178025,0.9487076359356441
5190,0.9509371746203694,1.6794355372347987
5172,1.0917576783170517,1.9207543436595178
1998,1.152101851971294,1.8178023019640606
7321,0.09730669817006732,1.2093308927425352
7458,0.7277273143534898,2.229418892597812
6748,0.3232895595348492,0.5485083437476522
5014,0.3155247764386109,0.6469406444042793
2552,0.7071523089842275,1.514205733958648
5654,0.8886301359025387,1.624486051499443
6127,0.7706764036122326,1.4957675391067502
6427,1.0096117628169925,2.1600605852195036
6070,1.4130170744180282,1.695469286879628
7789,1.430624874682985,1.2785753146166186
6466,0.3075812029618952,0.5662964614215666
7693,1.4607324796859964,2.2155943846914505
3012,0.2653533623895305,1.341932925527806
6911,0.4980751056962909,1.1085459640708824
6337,0.8152081496591432,1.9651609617878338
6149,0.29712783784080765,0.3732534915972545
5958,0.3602711357343986,1.6700558123020177
1869,0.8705327692032983,2.1931776240866374
5106,0.4895989220262744,2.110132546376012
4678,1.0761176926794296,1.678655023903155
6646,1.0101525445522108,2.098846354830795
5960,0.37554649674559887,1.7063834479827595
4200,1.0493972799089448,1.8012334765215416
5271,0.11166418305113346,1.2078282115972891
1728,1.0251188903594346,1.8348974836020466
5994,1.0541701533240948,1.7567522529110475
5890,0.34971779792768,1.9347245894938419
4676,1.3397761688729697,1.678655023903155
6671,0.8930453409698407,1.5242523236851884
6654,0.6690255675416499,1.8988048697057212
7682,0.6119709724890304,2.0171667014727177
5763,0.7273974226385878,1.7240659739441793
6673,0.5524910256910432,1.5242523236851884
5852,0.6162731198732222,1.3805953942901215
6024,1.0579448744258269,1.320068716580494
1180,0.19277606468564673,1.4329046983243825
4811,0.7031009021271983,1.5766466495159412
6424,1.0816440605328463,1.8939018546320214
7048,0.22724293795593023,0.3500456634875642
1418,1.0867537466156634,1.8321181109888152
5015,0.34589499937319695,0.5738894051013773
6873,0.8382459817160723,2.038015534562549
6692,0.8503552509049087,2.0048618480625167
6547,0.7927221690476298,2.181832922670788
6133,0.11395610023994665,1.3341618826985107
6623,0.25555745953978526,0.8915382754069998
5698,0.9327529479537445,1.7117721017226788
7596,0.3700751432594758,0.6008404824177043
5631,0.7873090153595642,1.9099167803540527
3836,0.2242297109887911,0.39385668303668736
7779,0.9484823202353315,2.1927768129789174
5769,0.911398084296362,2.3630450389339264
7489,0.9092135109899101,1.960777210380935
6038,1.1365355542746094,1.995329729103485
7105,0.28459270986705104,1.6569614037156764
1691,0.8906445814261306,1.5494429656960198
5169,0.6389881227790178,1.9001607292580007
6403,1.2724307429161485,1.8581736158840458
5778,0.7366750449285173,1.2307856967452686
6946,1.2905080624453937,2.0127119028961666
3787,0.13217313458074406,1.3961429651886188
7315,0.8412407857006048,1.2055594898254518
6872,0.8264294711126677,2.036131673938567
5822,0.8317503826901468,1.8241329779448765
5952,0.6721411177343946,1.6700558123020177
6371,1.1458662420643042,1.9292230568012152
2097,0.22135575643778843,0.0
7319,0.4086259936872381,1.441863060109486
7592,0.6124175254401769,0.6008404824177043
232,1.0115320647835437,2.016919189106106
2506,0.521556067262521,1.2351112704954306
7374,0.3294594114922297,0.5087147121928818
5691,0.9064427529884217,1.6308473439033366
6363,0.9204843231689344,1.9885225273750018
5340,0.20740830652771966,0.7279369511319425
5680,0.8273526653587265,2.1277513102535393
1265,1.0815956037826306,1.6046975549035647
5308,0.23959616786051455,0.3573410191846565
5192,0.8767352863854774,1.7569452290625547
1985,1.0961944249478177,2.10861031062587
1023,1.0003848978099064,2.7245985189654403
7583,0.7366436891770091,1.2697734651876587
7459,0.6058898154756874,2.4037481954682622
7724,0.5159833467103894,1.8997364634917653
7603,0.29891413696008073,1.374971340628409
7973,0.9357701185087436,1.4176647906781643
7357,0.41602488741729676,0.6932527586328515
3608,0.9970396877453003,1.4466665659318876
6801,0.13976229233069365,1.1132901768801347
5817,0.9832405314899,1.6054804600573824
6689,1.3206210286948206,2.0048618480625167
7964,1.14235513590456,1.5579353123382758
7127,0.6932038148282107,1.6368295924042122
7414,0.3231989316953069,1.2094256536192605
5154,0.5972402515849113,1.1723529036090286
4217,0.3107033977687633,1.5084860745002169
6042,0.9954591781064541,1.8621183730090989
7463,0.7304198114934013,2.442370828468208
4817,0.4957261831306934,1.2629496989410842
5139,0.3860199498016103,0.8036306251744024
5502,0.7985340699285863,1.9184005805579007
3015,0.36943437640987603,1.9064251737709452
7769,0.7807786096765738,1.5780110146225326
6572,0.5366919242996728,1.405995000279083
7566,0.7713513580660352,1.5627031091522539
1076,0.513648766459343,1.782811639954469
7311,1.679438245519263,1.2337122254651833
6035,0.8856148855400958,2.2636405515044147
2276,1.5424714456806983,1.6721631705967541
4221,0.47744999146015527,1.78321458420381
7344,0.25110175881110686,0.5507018264475114
7629,0.4258124930069578,1.7965139924189975
3536,0.2537266896929253,1.9590911184029984
5537,1.5560832313513453,1.326413988902309
3839,0.3400323547875715,0.44490411040285177
6058,1.2828829221462674,1.6512125418126795
2114,0.17472489276801206,1.0980531320019307
2009,0.844251255245414,1.8926127456252868
7124,0.5565273209320349,1.8155364784592969
6843,0.6117349675673578,1.5210694802210287
1723,0.7989817433950771,2.0456963532017265
2556,1.1353192255945754,1.3144410310334818
5517,0.7857456178334569,1.5684177206241694
1875,0.9298598897960632,2.566324809586001
2926,0.9901475429766737,1.274650753476437
7647,0.6896225064855436,1.5912393771858269
5839,0.19714120041459088,1.3914120656415925
2494,1.3246864192340373,2.176256828473375
7152,1.2078327622231386,1.0135729863317573
3065,0.37536173957774144,1.253916878559042
6368,1.025978352085153,1.9292230568012152
7449,0.5630335685125418,1.3001706090101546
6235,0.6942611475729689,2.0397480696860653
6790,0.7330925496950288,0.4055601714507878
6180,0.10656109835377908,0.25496245577304355
7480,0.6295690255953779,1.8277062490494127
6506,0.16841952547293856,1.0744621498561784
4839,1.306452289522682,1.5960997606470866
5704,1.2409112501634179,1.6344294227707379
5214,1.4454516858823743,2.0628391590999873
6171,0.295427808767188,0.2875401000457681
5925,1.3013394054489176,1.8823568286424552
6493,0.23543823410393253,0.4818958184466054
5144,0.35600870632746345,0.8036306251744024
7498,0.9267453828424154,1.8243608699681777
5599,0.8011937394025289,1.6764252241764963
6939,1.5112563212017733,1.881748124495816
2925,0.8878066967215925,1.274650753476437
6663,0.5707212163887231,1.328793294272254
7062,0.1667828214905979,0.7500420778613233
7261,1.0644688628089238,1.7725371654274347
6178,0.14453027798309676,0.2490137021180479
6583,0.8737673294573755,1.860813211845121
5442,0.7694946462068981,1.1981408122758708
7276,1.2288179113111224,1.2977704537120711
7765,0.6594933159716809,1.5780110146225326
6047,1.0459465375049661,1.8572596177098828
6992,1.189261740387586,2.362182186034645
6638,0.6737464008970854,1.8365584044205439
2011,1.0937270553588165,1.5966396462374686
6239,0.6264903772269584,2.1521208313195244
4437,0.1917557162397799,0.39151946439702656
7856,0.4018871959816088,1.4585256313663422
3974,1.0229708192341311,1.2397824381372349
6824,0.5118297379149529,2.0369575376953093
7650,0.984718450642705,1.5912393771858269
4438,0.11742796290975095,0.3816115317717916
5452,0.3309609414647332,1.0545049227957892
3919,0.6638209955392943,2.0615790182171967
56,0.1866542003344738,0.3528271678087555
3968,1.0048321831593612,1.5508517229945162
5773,0.663360100461827,2.256997516946833
6382,0.7599364085422249,1.9597237292995047
4576,0.5058981619155366,1.4720052786172595
7907,0.6257676722208216,1.7478765726775256
1725,0.7729424050211617,2.0456963532017265
7123,0.23036749963173075,1.8155364784592969
6641,0.9808613951713566,2.058347413691344
3833,0.6057937633962848,0.4652791775374321
5650,1.285799915977913,1.6708712948649656
7040,0.17483549570274468,0.636208067322306
7510,0.9569414013354508,1.887057700307463
7678,0.674832849392545,2.0171667014727177
5253,0.7898102557667737,1.2379136256669887
5683,1.0963379943509803,1.7661456724423843
6028,1.0424777600621264,1.320068716580494
4295,0.9279142962721185,1.3893791357968424
6248,0.5579657755268197,1.7168542753041958
7304,1.2580007648085203,2.454848748382809
6135,0.24434953177661867,1.2241645927438842
6976,0.8360476042770327,2.1337392425491326
5998,0.838614301704382,1.91880132617091
5437,0.6229938606274025,1.4937146268658714
6025,1.21990687335714,1.320068716580494
7381,0.1494013941140346,1.0298171438068107
4443,0.19125839166968164,0.37364458626602276
7608,0.6329122396463676,1.0326117736847318
7634,0.4611924648380618,1.869956586538738
3014,0.24214163574618736,1.7655504887246032
6870,0.6289666927718356,1.952764409747278
6860,0.9096025470588343,0.9768681276654968
5967,0.7559708340960392,2.0586830886081118
7029,0.4362087228992364,1.3513786882808432
5646,1.062672482142363,1.9836062936012817
7348,0.2369755964162237,0.7011770416828683
4649,0.7910513717740066,1.7213931973621615
7675,0.710698095716749,2.1639038722319897
7808,0.7019010407360192,1.4089657800222573
7804,0.43337793115424705,1.616912137430171
7450,0.5181260048515359,1.3587745074036806
5783,1.0294990674223103,1.2307856967452686
6488,0.2377071948340145,0.39817374918274445
7728,0.9256939571841393,2.2719473645687023
7099,0.13932354099605745,1.058797704896984
5797,1.002889637121307,1.5017231184879913
7102,0.1597673718644674,1.2243182749077595
2113,0.1564082087496443,0.9511201849052398
5929,0.8770580193070305,1.9615420344572152
5874,0.23301317033915547,0.5690244048639584
6609,0.43982476983393154,0.8525602159021156
2615,0.7599364085422249,1.6794355372347967
6011,0.8289731199305839,1.743958950987135
2104,0.4233089562839564,0.0
6418,0.8688572508915129,1.826529448254435
7266,0.7207499701564477,2.0061801363368756
2000,0.8497686807088538,1.715758054905437
1993,1.6367253663479955,1.8595987730975863
5539,1.214163780490001,1.1851870360086398
7134,0.3932826651826228,1.076229486934845
5235,0.7850590413533678,1.3467134728791124
6292,1.1564415324981092,1.5556319961357867
5113,0.6551386034156594,2.39139676042955
1021,0.6366254270225803,2.491901575066609
5333,0.12229968633302492,0.9276159572174281
7420,1.0462694478985894,1.1479405707963768
6974,0.7473313386599614,1.7910795395047276
1172,1.1203540608758356,1.6001457664385432
5069,0.4639380644626623,2.195431913758211
4827,0.8393083625142578,2.3554884045074163
7737,0.7529332009754296,2.627545576775268
5877,0.4485993262489639,0.5690244048639584
6695,1.11557358375415,1.950733382392641
6396,0.8390638277062314,2.4014281698249738
6294,1.0923574799609264,1.5556319961357867
2107,0.44490411040315836,0.0
6164,0.178854356460298,0.7944353062534533
5845,0.19917815656484233,1.277179910355972
5844,0.19307045262619071,1.277179910355972
6056,0.9883038743956423,1.6512125418126795
6525,0.2664829315654766,1.2736570605267568
7269,0.8756041981642281,1.5506551499360954
6468,0.22057956011533073,0.5662964614215666
5277,0.17803155457088843,0.8067116842064657
7050,0.2367742944168589,0.3500456634875642
6238,0.641107486862966,2.1521208313195244
5805,0.8760361808900841,2.078297642324698
5702,0.9615069200799401,1.6095070221962515
4293,0.7850590413533678,1.4326155437228518
1327,0.628967061658064,1.2260772225110173
5521,1.2185656347259484,1.7117721017226484
7398,0.1812566924183503,1.1855764599319802
5544,0.8857886561644064,0.9019921868823162
5180,1.0038602189887034,2.1416002735806146
6221,0.20030019318626255,1.9510973933007956
4397,0.11180031291383999,1.2913243481855583
5679,0.7152370370970366,2.231859351248453
3783,0.8719338811431662,1.44690270518447
6729,1.3334321711137307,1.3463329816305913
5360,0.8953498530482846,1.9525130691539905
7329,0.14769143248485714,0.9055121574055932
5370,0.5559766838069727,1.4719346263778033
7574,0.5018112509817629,1.5804758460193267
6288,1.0259326951054422,1.5556319961357867
6083,0.7226892346472173,1.314047948758636
6201,0.07020694600415524,0.9826841350007475
7301,0.5789840341587447,2.651457265323719
5225,0.8830747525081589,1.8362200419688608
7660,0.9866307489900621,1.602282380142638
6973,0.9487686615549724,1.543980074443597
5840,0.10381101541995726,1.3914120656415925
5693,0.9748336381952558,1.5508517229945082
5383,0.5202952960530512,2.029858673266522
1973,1.698415551216894,1.9686731789543737
5287,0.16289672075288136,0.3509218845332379
6984,1.615561006818674,2.064679122909664
7651,0.8117205346937977,1.5912393771858269
6379,1.1591101661891063,1.946411983691174
7008,1.308463259328906,2.0220915697577286
5249,0.8368052358193039,1.2379136256669887
6147,0.2547847560410244,0.3732534915972545
7781,0.4888268621057249,1.8233636601519068
5210,0.9085613195690789,2.2454335742654252
6975,0.8509511387175114,2.0089841528940298
2933,0.22479700346085177,1.2351098690869888
7919,0.1205170040692069,0.5391159923124261
5298,0.28024831167744163,0.5582592838750119
5255,1.0065894240740394,1.2379136256669887
6104,1.214753220866087,2.423261980287104
464,0.5611107164753419,0.907615731291441
5353,0.20167792682325358,1.828139947891814
6554,0.8267066298880357,1.847656553365163
6929,1.5254360487089544,2.523990490934381
6182,0.1814674898799379,0.26114312826123415
6203,0.09410934858438594,0.9826841350007475
5182,1.3536504718976299,1.6794355372347987
6304,0.6137185462169426,1.129797748206067
1266,1.124765230949295,1.6046975549035647
5145,0.37191699720504867,0.8036306251744024
2914,1.3540115001199073,1.692107989455986
6714,1.3110110602126883,1.8492361325076723
7542,0.7080124118565514,2.5895882330534175
5876,0.2904791698669299,0.5690244048639584
4445,0.21728375517822907,0.37364458626602276
2876,0.9427331661897441,1.6127140689923494
7654,0.8788674784905165,1.6437299230539681
6961,0.9961125170909512,0.0
3837,0.2023751407580033,0.39385668303668736
7931,0.26124690512710524,2.1466084318535628
5606,0.8595346423496423,1.6258152964816157
6724,1.406940309908838,1.6347603513494575
4826,0.6915545878736894,2.2421829558927415
6006,0.8372513991297105,1.7367132812352244
528,0.9501872390123003,2.240656407791026
5402,0.4390484339797034,1.4086663949166391
6676,0.44003146933125237,1.5242523236851884
1029,1.490147960878642,2.0517510686376204
2548,0.7648855759558719,1.7042895401972689
6361,1.1842985414792424,1.9699111199399422
5440,0.5058981619155366,1.2794723431766655
6715,1.24718859801159,1.8492361325076723
7479,0.5515646194575323,1.7719494528989368
6322,0.45633899046340226,1.1549393592549644
3703,0.9030280760720911,1.335692162614619
6050,0.9741594934387883,1.8710536529757478
7117,0.31548920340885,1.5152552567941773
1715,1.1462171811126194,2.2181580012188755
6031,0.7878732099784981,1.320068716580494
5123,0.8790543463864947,2.2493648844328322
5432,0.8386160441770213,1.5022337322341652
6001,0.668253916554625,1.5207507232617576
7795,0.8824434197373576,1.0942211391086092
5156,0.599123559132078,1.1920028758852261
4439,0.12328135844729243,0.3816115317717916
7281,0.8772757063112349,1.7058790052237753
6928,1.4066791027091383,2.523990490934381
5166,0.5795641774638479,1.4658743439032582
6496,0.46271150653992044,0.4972281249172758
6647,0.9449111825230685,2.098846354830795
5403,0.6417333595366782,1.518547239820272
5959,0.4072022782241879,1.6815863021423918
238,1.304445577756093,2.2064361000936423
21,0.34259506926052397,0.4353810812986644
6270,0.6304411303721071,1.3991252283261504
7688,0.9694415458961532,2.203163552594547
6266,0.4694731508457529,1.3389810111722078
1705,1.513017150709613,2.2404819052274996
26,0.3470447155894604,0.4353810812986644
6346,1.3694457745345188,1.6516235474193959
908,0.2004665413865846,0.4536001578858495
4202,0.8042871106941789,1.8656872174136738
1908,0.9595930899102135,1.455306698808441
7599,0.23426453648585682,0.971539839843569
6675,0.6523118854752464,1.5242523236851884
6295,0.9776894570535336,1.5556319961357867
7523,1.033072229851791,1.6622795982079095
6207,0.10924383751470351,0.8117275458214517
5779,1.1224405389689247,1.2307856967452686
5316,0.17088820856442963,0.3528399755182622
5369,0.5330230432385569,1.7657822666225116
5159,0.535886258410024,1.2007492545114327
7163,0.21576785443062443,1.3230918778588523
5273,0.13233527770385978,1.2137922653365611
1710,1.7093123539601152,2.2404819052274996
467,0.26067191044877774,0.7346287587321775
5826,1.048621360829811,2.181017544751569
5115,0.7772606033718181,2.3422422439232093
6993,1.3988742123914846,2.2987384875199814
4818,0.5200753256789229,1.2629496989410842
7947,0.6206980301382595,1.4185306613923865
7116,0.5115052359018577,1.328831905217807
7685,1.5865763237550012,2.4843700170912677
6353,1.1588155335215766,1.641312786725046
7416,0.37673255944863,1.1798485623450514
5191,1.1221178963759881,1.7964364544320164
6473,0.2696434884687916,0.34875695420616265
1079,0.6849126356689695,1.936982251606626
5013,0.26333735809021463,0.6909653765929452
7182,0.40862624368758027,0.6231582533454363
2090,0.205905259411201,0.26141489151226616
7431,0.6064032660483267,1.5382802351710394
4690,0.7510752651883972,1.4544699121493252
6303,0.7894072644943613,1.1381800424787716
6094,0.9952113652544446,1.9700133542140843
7918,0.10876451593486895,0.5391159923124261
7022,0.9148265698557223,1.4811619985338673
343,0.2632097534037503,0.48441881960666644
7089,0.423365320493963,0.5239689293071002
6577,0.985965333335662,1.405995000279083
5122,1.283254179948408,2.271331771477209
5164,0.5067889950187732,1.3523986587217214
3426,1.369278433961942,1.6621822878951826
7546,1.0345687557879062,2.6132611509171157
7198,0.39521297550152246,1.0720963697035424
7917,0.2179387487599144,0.5391159923124261
5274,0.13984226387612958,1.2078282115972891
6037,1.3113871268374295,2.2096843622703397
6980,1.0859788083451376,2.1337392425491326
29,0.2620343047228606,0.479606463043037
6069,1.05157547213763,1.695469286879628
6269,0.4813844725754698,1.3747926557900882
525,1.1688028865047146,2.030484572038319
7142,0.5483350046225747,1.3236901479071985
5931,0.8057632952137126,2.025137414503543
7576,0.7466352368514931,1.6577072321849042
5324,0.4272082946403114,0.4147003871907082
7380,0.1296771388271213,0.9098381816374668
6008,0.8689021964596915,1.6660802505178336
5799,0.9509371746203692,1.5298687138195355
1989,0.9457740462793316,2.0843821943566643
7619,0.27373515978922136,0.8173562294758707
6278,0.7853743551302681,1.9255151268650417
7763,1.0315141849603662,1.8106066880161962
6970,0.8979127209654116,1.3385315589270081
6731,0.5798967731041792,1.3463329816305913
7719,0.5233046142053935,1.7472577932427373
4223,0.5330230432385569,1.8000224575979826
6081,0.6879332075393668,1.3857968288627553
3019,0.48672010870979576,2.5152672602276844
5444,0.770896120549894,1.1981408122758708
5012,0.28227241277012727,0.6909653765929452
2101,0.1278676532475236,0.0
6043,1.3304230781241977,1.8572596177098828
7075,0.12761527534740014,0.4877560117491797
5378,0.7348893617724722,1.3711760143769418
7488,1.1280158205537807,1.960777210380935
7295,0.8868867563028203,2.3153580328332666
6212,0.16183650749008896,0.6590284208500192
5678,0.4302928101532422,2.231859351248453
6662,0.7241459650169417,1.328793294272254
6492,0.24001899093650775,0.39754186483307125
5673,0.5765758591063477,1.7909073432239846
7412,0.44959675904081337,1.372378501710362
7601,0.1971529311969599,1.0326117736847318
6537,0.9118130817569977,2.001316671855242
5895,0.5407908872107946,1.8316638415578075
6426,0.9595930899102109,1.8939018546320214
6325,0.5443561037781683,1.3758726383649917
3066,0.39561447879286044,1.3165797412127722
4148,0.41966889111258304,0.40174001105647394
7716,0.5897757056963642,1.5084701738988158
6840,0.7205346253259844,1.6023732821318266
2928,0.5929640111860498,1.274650753476437
2626,0.6151293793667787,1.2118621462953933
7042,0.14853748500948732,0.5418963179662848
5162,0.4773029689784572,1.2007492545114327
5802,0.9314966701473842,1.9364055532845006
3091,0.4509921812780797,0.8342155196944284
6395,0.7148154217734766,2.368826103380378
7367,0.24283021655738524,0.41778845550743476
2096,0.14909748348232993,0.0
3955,0.6429024728617316,1.731311906513273
7293,0.7184910881093945,1.7506051602310795
3300,0.18686592198178564,1.0754718778946764
5757,1.092461864826081,1.6593458412377706
7547,1.3135068986468301,2.6132611509171157
5372,0.8526148573830722,1.3711760143769418
7573,0.8465717222097128,1.5804758460193267
6166,0.33499390949458496,0.7920769564001667
5758,1.0570337582302551,1.6593458412377706
7313,1.1776192590006016,1.2055594898254518
6652,1.2505831092995174,1.8988048697057212
1720,1.0052843633337605,2.06420865550006
5603,0.7608302502867264,1.6803500027541876
5630,0.7165957323504425,1.9099167803540527
6188,0.25105115093663405,0.38862741066302053
5513,0.7708354902139285,1.5684177206241694
6367,1.235213031899708,1.9885225273750018
7034,0.10032467294494518,1.2890461681891499
7577,0.29212052617655704,1.6577072321849042
6601,0.8862151472032784,1.5411392261232302
5256,0.5842164015264475,1.2379136256669887
3702,1.145196668627737,1.335692162614619
6003,0.5107812687455164,1.5207507232617576
6284,1.2820199200932898,1.9255151268650417
6110,1.3147368946711044,1.3434553759815937
7121,0.275062284307687,1.6744599331834753
7618,0.4324798891479124,0.7681986516374365
7465,1.6949994774177595,1.8606331253148298
6763,0.24110226097582185,0.6654815332161416
7607,0.45572789403424646,1.374971340628409
5915,1.2457898669246115,1.6197589630883291
5625,0.722787639208965,1.8256184615621496
6256,0.6943972095472868,1.5921879585857432
6062,1.0389273985635987,1.6512125418126795
35,0.24368937211526764,0.6771721459888241
6082,0.7383553883551567,1.314047948758636
7030,0.1846357672718489,1.29502461562555
5944,0.9876357545836919,2.110096172375001
5551,0.33483814705948933,1.2084704829350652
5587,0.9888983396872607,1.3798327423986896
3788,0.18560807615887853,1.4294995858469575
6868,0.5153145553588362,1.7105705262203734
5772,0.8592805402535564,2.314937720663944
7298,0.8549341219474847,2.6790181660762484
7399,0.23235677924681172,1.1855764599319802
5443,0.716031038748654,1.1981408122758708
5380,0.5792073922623411,1.8196934820204207
5500,0.6204753812416136,1.9477357248638785
1074,0.7671883619265613,1.7243858098328435
5615,0.7671883619265613,1.9136320933139441
5272,0.117998624344756,1.2137922653365611
5950,1.1330439574722475,1.6815863021423918
5597,0.6043988259786621,1.7370462000956013
6408,1.336425769966506,1.799989422510646
3982,0.779112294351236,1.5001524074838968
7057,0.23861939955145256,0.6459585724068212
6111,0.9349217582577486,1.3434553759815937
7466,1.6949994774177595,1.4590414180091944
7686,0.5644602454690199,2.4843700170912677
6329,0.6837472872864013,1.6825891342451107
6795,0.11895707320550965,0.7881927804558879
5391,0.975666884224908,1.3719644704085283
5288,0.17446633370430492,0.3509218845332379
5608,0.7441269237648902,1.6258152964816157
6549,0.5515772027546131,2.100079467695214
7071,0.1716479718582976,0.5177912734001637
7015,1.2691560927460106,2.0220915697577286
5857,0.6429024728617316,1.416027661366522
7358,0.25332779002569483,0.6537978054672331
6670,0.7511797375050528,1.5242523236851884
6789,0.7157940829172257,0.4055601714507878
7506,0.35065579516837697,1.975573312497308
6942,1.114549821941465,2.0127119028961666
5173,1.0509676237120809,1.9207543436595178
3027,1.3964699031741126,2.215973802346518
1826,1.3764301000593253,1.3769092185342386
3777,0.8654718592478217,1.547034232343113
5983,0.6891052690093689,1.6603862348596592
6015,0.7648591620007921,1.743958950987135
7628,0.33500091023614004,1.7965139924189975
6508,0.14352746853650047,1.0744621498561784
6957,0.960708113029785,0.0
1185,0.3257805404399597,0.7201140985554126
6690,1.267748716268276,2.0048618480625167
4693,0.09730669817006732,1.3652257637183398
5252,0.9172128188801171,1.2379136256669887
6800,0.1282889997736909,1.1132901768801347
6348,1.2893946110222276,1.6560869012422048
7555,1.6456875368285897,2.598582999710136
4440,0.2023751407580033,0.37364458626602276
6354,0.8032118750902548,1.641312786725046
7696,1.6246311961763433,2.0031814265564503
6995,1.8996235988579502,2.2987384875199814
338,0.26988284405963153,0.5260407513212226
5689,1.078917995645155,1.6349863236376299
5864,0.37427111948708697,0.9978241235305514
6520,0.3025356882083372,0.9172070845096664
5212,1.0394491036619369,2.1820617749450775
3612,0.898414365592216,1.165479743558274
6206,0.09989902535236989,0.9182812577091705
7085,0.434223619809791,0.5239689293071002
5284,0.20520370385903555,0.3509218845332379
7014,1.1051052483098274,2.0220915697577286
5161,0.6229938606274025,1.2007492545114327
6132,0.17420556933585962,1.3341618826985107
7934,0.8564042630991294,1.996621523801313
6192,0.5214405103651717,0.47514332018533906
7129,0.47042474898130804,1.6349764513874927
7965,0.9651513418190799,1.471426577739431
5434,0.5467731644828219,1.4928563732477091
6579,0.6095177895965393,1.5595695392629023
65,0.2747952625200686,0.3444480490310462
7927,0.35862877279739425,1.253484117640891
7441,0.7543579620414795,1.129090490465993
7001,1.3859143172661776,2.448322326280111
2490,0.9267088710620225,2.5470737986583467
215,1.470614084511366,2.1406522536912043
6624,0.43129959602118423,1.0055763721909177
5626,0.7257309825757924,1.8256184615621496
7101,0.13794407066462977,1.181847318428911
3006,0.3020852744734674,0.7312906771517179
5594,0.8902423134651227,1.5195154948259506
6553,1.0171072015192353,1.8736980161181893
7302,0.6269756952351804,2.641744519694736
6437,0.7216329125361349,1.4014075189880917
6066,1.0492550597624808,1.8950366438163717
3299,0.2004257449443277,0.9888313681997938
6498,0.3240184179567039,0.4972281249172758
5662,0.7300493216409638,1.4742348942569643
5297,0.2497622416775529,0.5582592838750119
6064,0.7475684549906606,1.8593061151184473
4684,0.7973788985960563,1.6540931707817457
5999,0.6947387981484392,1.635717014583966
5795,0.7732322748534759,1.5017231184879913
1675,0.7443487347654256,2.083197963912711
6231,1.2963699387385195,2.0397480696860653
7473,0.7634996616417009,1.4388018222324541
6938,1.0461450957523488,1.881748124495816
4813,0.6637976699448809,1.4149143627557759
7535,1.345298525337417,1.950085704790929
5981,0.9673716206000169,1.6603862348596592
7578,0.8333061274555477,1.7371898507021837
5211,1.0076833530369123,2.18754698613186
7587,0.7909269153950562,1.0443825409426288
5538,1.4479485030493178,1.326413988902309
6581,0.42617810889923163,1.8506615090397094
4682,0.942573564852688,1.678655023903155
7669,0.684773198615713,2.2241346210693007
7439,0.6212314621699935,1.1307986349055903
4653,0.7725120004926858,1.383870356786681
4219,0.24503904863383125,1.6294630605952138
5963,0.5674155918439188,1.8040431973709934
6736,0.1593853590604717,1.2876949892799723
2617,0.6244241733782785,1.482248143745715
3424,0.8510051607988736,1.6621822878951826
3613,0.6230194594531787,1.1498386580749829
7100,0.16118200422890785,1.1753748646900055
7558,1.177752431328001,2.0478942623455785
5419,0.7462819797684439,1.9857831797007914
4833,0.9307071911732386,2.4154881965646813
6137,0.2632066881750241,0.9190896804496753
6144,0.35107467127899294,0.3732534915972545
7290,0.9676349465850116,1.675110396398478
2619,1.16405492283648,1.1552604600890182
3539,0.468996442079551,1.9590911184029984
2555,1.1383771707599646,1.4051748401679252
6472,0.2718951683209894,0.4159007032692841
6516,0.24744206372084185,0.8498229926490448
5280,0.12857374960331597,0.5595128149696229
7125,0.7040029277573265,1.651796783614452
7637,0.44844766733309105,1.7694639357373572
6286,0.7847927005481946,1.9805488026842375
7371,0.12918797304648566,0.4202757620328719
5676,0.42166065329158814,2.231859351248453
6366,1.1581270111942181,2.151471896115689
7496,0.8812905866321941,1.8243608699681777
5289,0.16745209431354283,0.4173582800256346
5997,0.6553918942659279,1.5207507232617576
7417,0.571896765229801,1.1479405707963768
2620,1.3009240110588776,1.1552604600890182
1898,1.6580735374404336,1.3554889861748332
7557,1.545460518333044,2.0478942623455785
59,0.255910605199929,0.41203316497968967
6289,0.8152081496591432,1.5556319961357867
4820,0.44284476828160296,1.2629496989410842
5970,0.7749890283204972,2.1532453618227776
4924,0.7731651157081258,1.6349808823771121
7812,0.9890285397484772,1.4089657800222573
7707,0.43646758254138274,1.085888757943089
3285,0.11600574750540422,1.054661427077224
3775,1.004263151719594,1.7119215653966584
6184,0.15063203691721316,0.2980856504135638
6224,0.43132277929400636,2.599151646795832
1972,1.3701211304101184,1.9686731789543737
5457,0.40185844960663347,1.0545049227957892
6287,0.8055461275928312,1.7062430733717486
6998,1.2030699759041459,2.2987384875199814
5569,0.3757490378813602,0.7445303704103454
7727,0.8477439267035476,2.137956243964274
6742,0.18925778001833016,0.7170373129005752
6539,0.7268079487229294,2.001316671855242
6220,0.19613323382114364,1.6227443192415363
7415,0.4868013394584499,1.2094256536192605
3020,0.5675619978217757,2.5152672602276844
6034,0.6901150602044158,2.2096843622703397
7680,0.7264777851135075,2.0171667014727177
6628,0.3519092953234177,1.275637938926774
4441,0.18296068064562696,0.37364458626602276
7491,0.8969982749519654,1.9988446006091567
7802,0.6827183074003335,1.0942211391086092
2690,0.15580677354249442,0.397501680369681
6118,0.40885630945627016,1.513789561588776
3960,1.2858565688908814,1.731311906513273
6739,0.17050973700481453,1.1867979898232655
3067,0.3288353335718628,1.459074745427574
5506,0.7475090494269783,1.8885501831042486
2875,1.138162399266841,1.6127140689923494
5394,0.46469682393832207,1.3691677654554701
2553,0.4409762031626703,1.4780717086447217
6765,0.21180681127070916,0.6899056153123947
3835,0.34376365393908426,0.39385668303668736
4434,0.3710365378398289,0.5036046104151701
6568,0.5795147494431068,1.6878043330994852
4212,0.4809955673819384,1.5084860745002169
3298,0.23599271964048393,0.9382148435562884
7076,0.2170543666255157,0.4877560117491797
7910,1.2289785003078417,0.6240770139563292
1027,0.8050346148769694,2.057956358293369
5526,0.7516933982505549,1.9738762519889579
6063,0.9481657008683281,1.683730861466419
6741,0.1559300079983099,0.90620717417379
6167,0.4289838502819508,0.5815563548982852
6560,1.0574436470780286,1.6878043330994852
1976,1.5718745678774784,1.9686731789543737
5979,1.4411446777184638,2.1757963260945146
7016,0.7431379147840943,2.0220915697577286
5384,0.5548286718796924,2.111781448763459
6345,1.1380090028704377,1.6516235474193959
7929,0.4945060635159401,2.1653548159273446
2632,1.607332014252846,1.1735351980572837
4449,0.14453027798309676,0.437950823558514
5645,1.1120431871658802,2.157788143833423
5918,0.7525823690898418,1.8592109145272762
1721,1.066891514395542,2.06420865550006
5989,0.892016535512705,1.600190591829753
6774,0.16283679238994975,0.4449347467774859
5263,1.1860088684666812,1.1908218485709814
7475,0.5768197394776283,1.4483086432538825
6114,1.0076879585576262,1.3434553759815937
6347,1.0384890916206628,1.6516235474193959
6476,0.289224397687592,0.3082966490761841
6169,0.40077768508419553,0.38931052450130715
2882,1.0048321831593612,1.7370879781238229
7325,0.12367292312710011,1.15177602034391
5321,0.2767089215275571,0.3780357177359755
7534,1.4643248765586594,1.950085704790929
7571,1.2880708751304717,1.5804758460193267
7543,0.9365001965987767,2.5895882330534175
6906,0.4611149555762817,0.9318421271942015
5576,0.18478386068754057,1.654979213760009
6791,0.2933178593114499,0.4055601714507878
6823,0.40219066027476136,2.118774462531167
5966,0.5890297128104393,2.0077573891358433
7074,0.113884413552766,0.4877560117491797
5609,0.7581474696563113,1.6258152964816157
3094,0.36777596962403186,0.8342155196944284
7461,0.5477392793733916,2.3840412436377103
7341,0.2855716424702346,0.5429569824616445
6519,0.2664829315654766,0.8731426134984797
6541,0.9049775883096487,2.001316671855242
6340,1.1015147140391743,1.6849560444996692
1707,1.2780904832572946,2.2404819052274996
6989,1.2581442600501356,2.064679122909664
6727,1.4503015286158756,1.3463329816305913
6136,0.24945412053197655,1.0827849786410086
4814,0.7012796460618802,1.4149143627557759
7540,0.8668051404645615,1.9713699491850363
5984,1.2229192373805131,1.6603862348596592
7912,0.662155032159417,0.6240770139563292
7069,0.31536906081165283,0.5774432185477986
7340,0.37789613047777443,0.5429569824616445
5681,0.7588690791674674,1.7661456724423843
5985,1.0052843633337605,1.6603862348596592
6578,0.801212402952131,1.405995000279083
4685,0.6868673601357207,1.4544699121493252
5751,1.0232062483476627,2.0361673934255524
7853,0.774860902282657,1.1489627717356594
6331,0.7116161546416363,1.8268544333111452
7493,1.3011002266824514,1.9151872702694634
7662,1.0495479053138244,1.602282380142638
6389,1.385608716971733,2.0009850882799443
7316,1.013102317572125,1.2055594898254518
5767,0.793192678142795,2.0231460385725604
5548,0.5622013986290526,0.9019921868823162
6055,1.151203096229698,1.683730861466419
7126,0.8954422845323085,1.6378038334572305
6433,1.1126304360690147,1.4014075189880917
6852,0.7532462655706279,1.1221216500025843
5634,0.6674025418980305,1.9069975413128453
7026,0.7061882541527991,1.2404032655416404
5389,0.6442456732049954,1.422113751497706
5352,0.22693315905760952,1.703116255797171
7379,0.1559680936418363,0.8201375851596143
3093,0.31447792721766415,0.8342155196944284
5285,0.22797575963683275,0.3509218845332379
5940,0.9081532183729996,2.5750198893260716
6855,0.7346629384539802,1.015009559260006
6336,1.1878794589213924,2.0308602703535286
7788,1.1308766568852604,1.2785753146166186
5706,1.3247307951647602,1.6344294227707379
5939,0.7332423720992788,2.5750198893260716
3008,0.35867936670454736,0.7312906771517179
7486,0.4302928101532424,1.960777210380935
2100,0.13165775424731443,0.0
228,1.1109949350202284,2.016919189106106
1078,0.47086880577420415,1.936982251606626
4447,0.14724986790351635,0.37364458626602276
7385,0.13609837836068056,1.1687481769805892
6856,0.6650472244614736,0.9768681276654968
7937,0.863813750497172,1.996621523801313
7860,1.3167120051877526,1.353746753637888
5359,0.7432475761602135,2.018825996976408
7435,0.4302928101532422,1.362893057153939
6710,1.1676949972321307,1.8492361325076723
7588,0.5528991480667604,1.0321180703042732
2631,1.4085992442510216,1.2351643788333833
6423,1.2397649042283223,1.8939018546320214
1894,1.3732433384085987,1.855295695641226
5219,1.1719352361284263,1.7250422416487996
7343,0.23920074320639922,0.5429569824616445
3989,1.0898206245802922,1.605947792534343
904,0.33633030636384703,0.4695508105705914
7515,1.4102208729780483,1.4788552887660282
3951,0.8451542547285174,1.9395109996174975
6895,0.6167472768927611,1.1357871265416768
6526,0.2633729538684573,1.686033468871633
7747,1.3973916457850906,1.3116766493136212
4650,0.7501488287148732,1.6880618946159107
7591,0.6000845455263312,0.6008404824177043
7086,0.5177360038835742,0.5239689293071002
475,0.24637848999376313,0.7503736573385262
6775,0.16561553259925724,0.44320520973751715
51,0.20790363485618335,0.32196555332291754
7305,1.1934745089987202,2.3001458267261694
7159,0.6073533285688051,0.8222907672641796
7216,0.917352263897852,1.527414318367261
6962,0.9124226831452648,0.0
5916,1.1445011805154552,1.6197589630883291
5302,0.17208583838375693,0.5582592838750119
5322,0.34600902226289737,0.4147003871907082
4426,0.21795179147804938,0.4382834291116475
4303,0.940260122305465,1.426516404476863
5374,0.6621812673060348,1.3711760143769418
4694,0.16165699178955173,1.3652257637183398
6443,0.10032467294494518,1.3775781439403705
6000,0.5159833467103894,1.5207507232617576
419,0.936860139672736,1.619888594799476
2613,0.7077195538998023,1.6794355372347967
5830,1.0587605735007926,1.690432941982728
5703,0.9369870138054002,1.6344294227707379
7976,0.5504564384316547,1.4176647906781643
7641,0.9680627681343111,1.8171196625800163
4393,0.9810956547047864,1.2913243481855583
7213,0.8281915362553646,1.527414318367261
2089,0.23979961557442836,0.2662727111855368
6199,0.15166748897470192,0.9623474845326169
7477,0.5481274332380663,1.5616811096516325
7373,0.23713721291471715,0.5087147121928818
5793,0.9762075543803919,1.5017231184879913
466,0.40117499639944576,0.808767243832151
1978,1.4805099132134019,1.9686731789543737
5781,0.981336633955911,1.2307856967452686
5682,1.0162920716544628,1.7661456724423843
7068,0.45783216699564483,0.5788269534166154
7010,1.5376022702144578,1.9113456174344916
7036,0.09929898771613903,0.9892384483018474
7584,0.7892951128027985,1.2697734651876587
5565,0.6356069817327964,1.2839776901895152
341,0.3379330814386103,0.48441881960666644
3287,0.1031648498513338,1.0452948545700789
4430,0.19994345216674894,0.4382834291116475
5244,0.6494606696132799,1.640997016156388
7391,0.3201297377587609,0.9382363475439632
7699,0.8152911588813143,1.2066997714808214
3785,0.4091273721307136,1.6984971121025554
3611,0.7412276550732652,1.1678584983670515
7306,1.1330289636776627,1.6633006453910835
5580,0.26343162049995056,2.0365051224344346
7392,0.2576621218562265,0.9382363475439632
7468,1.5314383467528176,1.4388018222324541
3949,1.276255040783842,1.6277123994386045
7612,0.583613159428839,0.9607343111041072
6561,0.6978780231688835,1.6793848100791098
7681,0.5548542004613586,2.0171667014727177
7137,0.36263668303760127,1.3236901479071985
5329,0.12241129086679904,0.8341879902305785
7330,0.1369639890075478,0.8984741872701044
6793,0.18838661198325996,0.5364630596897707
6092,0.5695584965412023,1.7329434064688196
7940,0.9728266602619637,1.4833962044972806
6902,0.38113569247663526,0.9318421271942015
6951,1.0153806224524815,1.1484172442001355
7063,0.24807289571841043,0.7500420778613233
2549,0.7787302580030505,1.7042895401972689
7691,1.0199867692458355,2.2670867145558637
6987,1.0474427836540836,2.064679122909664
7933,0.6030379951214611,1.996621523801313
1713,1.1248850086823385,2.1998037724924617
5856,0.6335084401014869,1.416027661366522
6565,0.6034742539339769,1.6878043330994852
6878,0.8430335368007132,2.0073773257232483
4451,0.4214505792699049,0.46359415863460207
7386,0.12763610299248793,1.1687481769805892
2878,1.0473065144483202,1.6127140689923494
5661,0.7474967261531624,1.4742348942569643
5892,0.683141193775877,1.9347245894938419
6837,0.9553526854559253,1.9233198402989207
6950,0.9301571071899373,1.209297339779729
5543,1.044403900302165,0.9019921868823162
5552,0.23202611388280983,1.3047725408467545
6484,0.11189884771098299,0.3242944123608288
3771,0.470906998953775,1.7117721017226781
3286,0.12602031944612582,1.054661427077224
5418,0.6366254270225845,1.9857831797007914
7979,0.781897374699032,1.4811885901493622
6033,0.4470046924273124,1.5128699706817563
7648,1.1406402587279025,1.5912393771858269
7500,0.9842604254859864,1.8243608699681777
7495,0.9910229962938314,1.8895254746576882
6538,1.0351993237182882,2.001316671855242
6430,1.5507130607314064,2.032397233990249
5686,1.1809883047023177,1.6625743570172662
7741,1.0930813566318864,1.6111703658724097
5568,0.692862454385852,0.7445303704103454
63,0.24764804985479044,0.3444480490310462
25,0.36518063972251014,0.4353810812986644
2115,0.1644276571945488,1.107819353740672
6864,0.4766947910623629,1.162340843849767
6214,0.2004257449443277,0.7056902707371027
6919,0.4709081006188303,1.1577816137050994
6883,1.2637465304607294,1.8836017280088284
7606,0.5722677942383213,1.6115580468719453
526,0.9486348471448447,2.030484572038319
6806,0.19630120547803334,0.7831791097305907
5982,0.9684866771141409,1.6603862348596592
7748,1.2799214086476391,1.3116766493136212
5835,0.696949457048256,1.5021064109705016
5158,0.7603776036514416,1.2007492545114327
2495,1.4317096865313146,2.0831979639126845
5016,0.44747572351923715,0.5738894051013773
6604,0.8504918636312074,1.2912704704790496
7401,0.4118299597488254,1.1227852328094632
7622,0.28405862684493394,1.4454925570944681
7863,1.3959121002042083,1.353746753637888
1981,0.6950056679177274,2.2642751921087014
7012,1.5754350683844855,1.9113456174344916
7797,0.969972538064601,1.0942211391086092
5318,0.1549907787036229,0.3780357177359755
3284,0.13759067807572165,1.0027409188170509
6799,0.0999292188668885,1.1132901768801347
5846,0.21003006397155463,1.277179910355972
7524,0.8157418285337433,1.6622795982079095
5932,0.934682608657364,2.1694423353015564
5174,0.929672046821181,1.9207543436595178
3021,0.9485209081801853,2.468470483219682
5812,0.6939127822447724,1.7718470123160177
5206,0.977879560381642,2.3755176363308097
1073,0.772908378267359,1.66232109260995
6141,0.25917487872147155,0.6303509290603379
7600,0.29507668301354995,1.0326117736847318
7292,0.9637142977117328,1.675110396398478
4155,0.15295661619262851,0.6605435448284867
39,0.23825000441300836,0.6771721459888241
7969,0.7692348155828963,1.4176647906781643
7663,0.8903961283722379,1.602282380142638
6357,1.11736910705479,1.641312786725046
5189,0.9870131382713906,1.6348257800632429
5898,1.2298628825894902,1.6998264172616184
5344,0.16714612184359146,0.7279369511319425
5358,0.5699438027399482,2.018825996976408
4421,0.3053512968148014,0.4382834291116475
7080,0.21240334460473936,0.4918871675259987
5868,0.624971962999922,0.8394241692557373
6165,0.2303454138185476,0.7944353062534533
6422,1.1800433793075316,1.8939018546320214
5515,0.7526430990070799,1.5684177206241694
2271,1.433628637079556,1.6721631705967541
7309,1.5339299776947413,1.2337122254651833
7365,0.21227611465371782,0.41778845550743476
3780,0.7223836528333316,1.44690270518447
6349,1.3076049717975544,1.6516235474193959
5260,1.1335002337022293,1.9618637841055306
4828,0.7418602859713476,2.4735745185628493
6158,0.3016326846577913,0.7522108412802891
5941,0.6729181095333441,2.532770665077434
6393,0.9493715766526135,2.1194281946080333
5510,0.9758869163211402,1.6856187559247853
7631,0.535407420169357,1.7965139924189975
7509,0.9636429042358967,1.887057700307463
7966,0.8726140701751466,1.4451458480712005
3311,0.6537955229400068,2.0443922009811986
1325,0.4969973015387836,1.3452485198495905
6007,0.863922852111513,1.6660802505178336
6981,1.1681179463430589,2.064679122909664
7267,0.7266352567380392,1.9087323293740721
6397,0.9456359907967773,2.4014281698249738
5910,0.8005397318643982,1.6197589630883291
7533,1.3167120051877526,1.950085704790929
4674,1.4979655179955753,1.713465154093136
7390,0.3128566091694517,0.9382363475439632
5238,1.035094491458462,1.3467134728791124
7356,0.4255746584130672,0.701473307281401
6941,0.837839109208739,1.881748124495816
6780,0.22797575963683275,0.44320520973751715
5127,1.7473925664662042,2.0246560181618722
7115,0.5208160094595103,1.328831905217807
2695,0.3099995431273366,0.444493975474298
759,0.4611149555762817,0.8961515016865039
7775,0.8333061274555477,2.1927768129789174
1873,0.37038291381289773,2.4984673640073383
4825,0.5539766033333103,2.222094431287177
3296,0.25795647999155835,0.7079518829958562
6932,1.53133454671524,2.3656156010647136
5885,0.1808839499222525,1.812063356130605
7077,0.14187970522755,0.4877560117491797
5938,0.9266910758630135,2.5750198893260716
7073,0.19436304876439664,0.4877560117491797
3293,0.16093224284101956,0.7079518829958562
6825,0.732234875392963,2.0369575376953093
524,1.2290366012295566,1.9440096435722047
5175,0.6779317046480632,1.9207543436595178
4404,0.17230418999888242,0.5705506899285111
6246,0.8265920721048757,1.7168542753041958
5798,0.8024295777896389,1.5239194435193504
7508,0.6978695771336382,1.975573312497308
2117,0.08970030639951593,1.103901316174072
6454,0.31921944143402897,0.4075566332088904
5135,0.7768480231032127,1.004265641641934
6707,1.1166959334623299,2.0266912108373396
6200,0.1278818101742853,0.9826841350007475
7735,0.8480686183679257,2.627545576775268
3964,0.7166341906372415,1.731311906513273
20,0.3468634959790147,0.4627108032620632
6589,1.063280010703838,1.5847017613946366
6788,0.49192412787508444,0.4055601714507878
7501,0.7045157623921048,1.8243608699681777
6518,0.24926266140712963,0.8498229926490448
5396,0.7543579620414795,1.2996979479091764
6179,0.09564832280716293,0.2490137021180479
7180,0.9557045247215497,0.6231582533454363
7545,1.3133175233479915,2.6132611509171157
7645,1.0296533290897654,1.5912393771858269
7659,0.8742884046487563,1.602282380142638
6778,0.22877752466025184,0.44320520973751715
6814,0.20125911355751533,0.9028288622031401
2557,0.9758985652536392,1.2929396394053252
5951,0.8922197730194151,1.6773756124263552
7503,0.4798141529816077,1.8748847787837468
6093,0.6106595427326654,1.8163314310710608
7658,0.6178293101472917,1.602282380142638
5993,0.9110267175752331,1.6731850327741593
4392,0.7416429807420908,1.2913243481855583
1692,0.7480335951281006,1.5494429656960198
6521,0.28776099236160013,0.9396679733279821
226,0.9295063225502896,1.9947975322764289
6978,1.3381756713774517,2.1337392425491326
6511,0.18480905498312147,0.9785465551767978
5390,0.9313684485030781,1.38793904166974
7762,0.7949811392416237,1.8106066880161962
5226,0.7606414650648664,1.8845764511146108
1900,0.8252383115225638,1.3554889861748332
7639,0.7462819797684439,1.7694639357373572
7157,0.6663375657216498,0.8222907672641796
5903,0.9674063506221526,1.6723582615330321
4680,0.6115793239686109,1.678655023903155
7967,1.099810063157801,1.4176647906781643
7388,0.1946377886970832,0.9382363475439632
5229,0.4855559946572886,1.6658098472225455
7723,0.7264777851135075,1.8997364634917653
2879,0.9174315763919034,1.6127140689923494
6832,0.9426834017480016,2.037152353985476
1177,0.15250396694260995,1.4329046983243825
5563,1.1454662092136274,1.4002325078430917
5942,0.7922500889052058,2.4340590251750345
5814,0.8513580161341208,1.7718470123160177
7397,0.18319393278570312,1.1227852328094632
5598,0.6659680453820448,1.6764252241764963
1892,1.0930813566318864,2.2896156885993366
6644,1.179116530301642,2.098846354830795
5423,0.8991437235916878,1.9461950476865002
3283,0.10502369645400897,0.9406127623660775
6757,0.32043754645319394,0.6612483178023226
5957,0.31359384538795504,1.6179615350846484
7018,0.8958568457704351,2.240554834918463
7139,0.5036555827901406,1.3236901479071985
2550,1.0715382242769411,1.610590842975501
7758,0.9327613164256795,2.29218334227244
5371,0.622330680401561,1.41285368437801
5699,0.9275723748469783,1.6308473439033366
6079,0.9644016280660597,1.4441823960483224
5920,1.3167120051877526,2.2549746248005116
6914,0.6864166037575677,1.1577816137050994
4687,0.9728266602619637,1.4544699121493252
3104,0.3566840264520805,1.1430066258855653
5666,0.5744801113807494,1.62491648892506
4396,0.1756589201793804,1.2913243481855583
3016,0.260052834917302,1.989230824177277
7932,0.35283639224836827,1.996621523801313
6250,0.6533517730414461,1.7168542753041958
6585,0.829779195717871,1.9711873093858059
6281,0.5903207013855442,1.9255151268650417
7974,0.470906998953775,1.4176647906781643
5658,0.620285001128367,1.4047828901582706
5860,0.9085592067759749,1.4631613655114968
7108,0.6093847384397114,1.6569614037156764
7207,0.43642795793198236,0.5879985085047161
5801,0.8619002277112255,1.864141905131449
5385,0.8994869448160243,2.0371027509909676
5926,1.0816440605328463,1.8823568286424552
5759,0.7910513717740066,1.6593458412377706
5607,0.7524826034473826,1.6258152964816157
6030,0.7878732099784982,1.320068716580494
5770,1.2548973864871393,2.505544170079055
2508,0.5946502141838274,1.2351112704954306
7705,1.3154821313133964,1.2066997714808214
7078,0.1597150050241862,0.4877560117491797
4648,0.9077652481959502,1.7527170730257642
5867,0.6209487713454803,0.8394241692557373
4843,1.0869165485713361,1.5259224312531685
6611,0.5651064131801925,0.8379033554940009
7393,0.28459270986705104,0.7909688990231184
1982,0.9295732281597134,2.370662425434026
1724,1.000599222866888,2.0456963532017265
1031,1.02364952050313,2.0517510686376204
6897,0.44814339780874574,1.0384248548428079
3316,0.8359476995889568,1.8495785334495836
6809,0.18235239999178363,0.6295168912560604
5128,1.3536504718976312,2.0246560181618722
6672,0.6594933159716809,1.5242523236851884
7943,0.7030994973074931,1.4185306613923865
5290,0.1272992576185748,0.4524212873475648
5705,1.1196817047793668,1.6344294227707379
5335,0.1281745279589792,0.9276159572174281
6372,0.9474547817925005,1.9292230568012152
7179,1.6025650325010445,0.6231582533454363
1872,0.5321843571970283,2.4756301333403252
1906,0.7891863228613525,1.3216325213747362
7153,1.0230548181186785,1.0135729863317573
7726,0.7053368679008822,1.932010784759079
5525,1.0516621563801476,1.9369799520860898
6217,0.22737689737136227,0.8543292416116276
7906,0.9521278089422371,1.7478765726775256
2689,0.15542902750982723,0.3531947582821566
5815,0.8383528049017341,1.7718470123160177
3969,0.9973013541602003,1.471370322926401
5326,0.13282561436481644,0.4147003871907082
3309,0.41810703078898476,2.0930653749860233
5756,1.1618536203815544,1.6593458412377706
7799,0.8922154871995246,1.0942211391086092
7104,0.2272194888541011,1.2327918926719084
7810,0.9743061179774685,1.4089657800222573
7147,1.0352967082547468,2.0790270386312537
3947,1.2290366012295568,1.6277123994384959
2930,0.19002544386898568,1.239981138258327
5398,0.6621812673060348,1.296747218444368
5971,0.9744822166792219,2.200168000697582
7861,1.302993010301636,1.353746753637888
7279,0.6918613446906228,1.3888644140166688
5307,0.2926290394972137,0.40121930029369257
5148,0.4265617325364135,0.8036306251744024
6783,0.16800291104751044,0.39138294127266604
5623,0.9531489332240278,1.8256184615621496
4154,0.23683116896888284,0.5628274515400492
7426,0.48323796264538,1.4855042300531065
7958,0.6446115507942832,1.7944112524670885
6305,0.6837463521542162,1.0454921165434345
5894,1.4059049495734899,1.883837284965319
5883,0.16357909786902564,1.5756638403589198
5421,0.9320953437417184,2.0157231188302767
7201,0.710698095716749,0.5879985085047161
2912,1.3200687165804905,1.692107989455986
4218,0.4130262617197937,1.5086453501707862
6890,0.6050970125200855,1.225430493481714
5595,0.831725140605257,1.8213840767156375
7960,0.8878066967215925,2.055841273611721
5897,0.9399543353968302,1.6998264172616184
5420,0.7462819797684439,1.9857831797007914
3967,0.9126833110459249,1.5508517229945162
6629,0.44423948092743104,1.2936994911813984
5314,0.15265439737898526,0.3528399755182622
7047,0.20151762698906914,0.3500456634875642
3945,0.7583118563116344,1.6277123994384959
6098,0.6178293101472917,2.2883713499692377
5753,1.0094412055276045,1.8456722877516436
6411,0.5304308844131281,1.74562507336732
219,1.3986156806191061,1.9837413742793855
24,0.2546341960962874,0.4353810812986644
7403,0.41381868944863565,0.9454301089374116
6061,1.1336074970636922,1.6512125418126795
3089,0.505777240015005,0.8488840935262424
1991,1.4726416775224465,2.022365344860813
3920,0.9678938737906282,2.0615790182171967
5435,0.6573583849858682,1.4928563732477091
6316,0.4209420083856662,0.9632692446824876
2274,1.9458568023424019,1.6721631705967541
2502,0.8918141773618501,1.2402444843714073
6335,0.9979684837126914,2.0308602703535286
6373,0.9757792865091,1.946411983691174
6448,0.14734133767267638,0.8409980283545214
3098,0.3755141512839066,0.8849187788739512
5387,0.8229254894177366,2.006008206908508
2618,1.2648049261933982,1.1552604600890182
7522,0.7076268979830347,1.6622795982079095
5312,0.16441387220188627,0.3528399755182622
4429,0.2565423383092136,0.4382834291116475
6010,0.9074146559341343,1.6861547465307898
5612,0.5728458725356386,1.6258152964816157
6881,0.790961953661925,1.8836017280088284
5695,1.0144256808624905,1.5586109666051091
6435,1.3681989595494852,1.4014075189880917
6146,0.23155723781592724,0.3732534915972545
1178,0.11395610023994665,1.4329046983243825
4435,0.2602625211816199,0.48266790682787303
2484,0.6040953508679435,2.1336254156171273
7784,1.241296928814875,1.2785753146166186
1267,0.8001218325901259,1.6046975549035647
5811,0.6167789700621453,1.7718470123160177
344,0.35352629946684594,0.47865369113879047
6720,1.059820986694751,2.5227368662846645
6467,0.22494234018973908,0.5662964614215666
2625,0.9177520286998668,1.1552604600890182
5643,0.8942072244942109,2.2026827505818396
3095,0.4704590720390762,0.8342155196944284
5404,0.5792073922623411,1.5756166302629424
3922,0.5487029760933274,2.0615790182171967
2630,1.0949825144363277,1.2351643788333833
7092,0.18755079056994914,0.5874020579966773
6607,0.8607749094131063,0.9990910768683491
6268,0.42565969386826563,1.3389810111722078
7954,0.7617963336149878,2.282909995722161
5534,0.9995607963354594,2.424177573457889
5996,0.808452083454443,1.5207507232617576
7395,0.2901906094787003,0.9454301089374116
5559,0.7791684646464896,1.5691670171590624
5601,0.597538155702054,1.6764252241764963
6040,1.5977526570058231,1.9534255405122136
3102,0.5495297622161315,0.988789580538407
5266,0.9426834017480016,1.1908218485709814
7128,0.4728433082835994,1.6349764513874927
6351,1.0248165114810863,1.6177015472053875
7697,0.7492515622193984,1.7953605334336769
6376,1.0910894511799618,1.9292230568012152
4207,0.7007674572089609,1.686506713608677
4150,0.5007778345704736,0.40174001105647394
5988,1.2165250529742428,1.600190591829753
340,0.27401222071249287,0.565731832788437
7938,0.9075609771794431,2.100407640558661
6170,0.2876814052900627,0.29018168920805665
5624,0.6925428045556169,1.8256184615621496
7407,0.612886158074581,1.193235039802627
7579,0.6433881665345818,1.2697734651876587
7285,0.8814386722993638,1.717448753763335
760,0.377721808067446,0.8927981269056601
7604,0.35611271075015216,1.374971340628409
7194,0.39571279559031514,0.5256042627219664
6988,1.166086925146792,2.064679122909664
7520,0.7556439227951017,1.6622795982079095
1921,0.5994265417926934,1.5199411622171255
3983,1.061585634659792,1.5001524074838968
6515,0.18235239999178363,0.8498229926490448
6557,0.6710830033827594,1.7237853186803735
6903,0.38664226735292295,0.9318421271942015
6915,0.5544098476727218,1.1577816137050994
7539,0.6128632730634102,1.950085704790929
1077,0.40220439252040896,1.936982251606626
5909,0.8933173790724914,1.6197589630883291
4398,0.13653328798151196,1.3026239609413668
5813,1.0671697577432324,1.7718470123160177
6073,1.3495597386775944,1.5952391471850917
5217,1.0227410575005091,1.7250422416487996
6905,0.5086113860820392,0.9318421271942015
5230,0.7238810806950814,1.5188697315478958
6693,0.6349750337709451,2.0048618480625167
6500,0.14606460045557135,0.5469137041331126
5501,0.9422630002033726,1.9734762319053563
5613,0.6779317046480632,1.85210168890276
5934,0.8286829849792835,2.2332661717841225
3222,0.12884041622212394,1.2876725476471511
5124,0.9676879302815615,2.0246560181618722
7447,0.4536079523084704,1.2912704179494576
31,0.2107341213848402,0.5784416294920111
6273,0.841684700642664,1.899843018752136
7361,0.2136371076142886,0.516095776766733
4837,1.1608303266605529,1.6304047972339657
5790,1.2113552833591152,1.5239194435193504
6107,0.9248737055279634,1.8109812460457706
5152,0.3375744101565555,1.1576863061240277
6725,1.2686750566355418,1.4787247856295462
5671,0.4498668818725625,1.6655705670694
5455,0.47340658968168653,1.042720330434385
2546,0.7618699459255724,2.0396250720957534
5315,0.16128211852867053,0.3528399755182622
7296,1.107273675388399,2.339141376470687
3779,1.352822876709233,1.44690270518447
7690,1.0632018694974383,2.4036930337367433
6696,0.8739331243264351,1.950733382392641
5776,0.969972538064601,2.1030545868691157
6204,0.09505851820170791,0.9826841350007475
1891,0.8255407797111893,2.3632194407239537
3778,1.2942725803470927,1.44690270518447
3834,0.49687063446562474,0.44490411040285177
7773,0.7059540890766385,1.8233636601519068
5592,0.878801534267347,1.3798327423986896
7565,0.7520655911301093,1.5627031091522539
5511,1.0196033239464155,1.6721631705967328
2921,1.0149838178368489,1.7738231677812393
7411,0.4536868487859447,1.2094256536192605
7314,0.9640871125913407,1.2055594898254518
6728,1.8614336830353344,1.3463329816305913
4401,0.14596963298674215,0.6242742639114197
6089,0.6324709775340126,1.4645485296884377
7786,0.8151506011756124,1.2785753146166186
7536,1.223563651627985,1.950085704790929
7864,1.1570325953590996,1.353746753637888
5900,0.9475830333658811,1.6998264172616184
7505,0.4900545296697284,1.975573312497308
4198,1.1697765997391074,1.8012334765215416
7273,1.189367242283839,1.2977704537120711
3774,0.9919824941037904,1.7119215653966584
5262,0.5938062560191425,1.1908218485709814
7908,0.9536158641884429,1.7478765726775256
5334,0.13283127715864101,0.9276159572174281
6471,0.19432256544086915,0.5662964614215666
6253,0.44284476828160296,1.7168542753041958
3427,1.3146843962443588,1.5244668961656396
2272,1.636248617448657,1.6721631705967541
7913,0.7030994973074931,0.6240770139563292
3305,0.1974329150493236,1.8921569701455285
7553,1.6358774649027485,2.598582999710136
7,0.3925532768109722,1.3523336520692097
2614,1.0278435795300314,1.6870076360424573
5068,0.5933595374687102,2.195431913758211
3535,0.19580703616107153,1.9590911184029984
3017,0.2744958774539842,2.468470483219682
6717,1.060269049398764,1.8492361325076723
52,0.19787243518393036,0.32196555332291754
5765,0.9730712430050765,1.7895671736335204
4403,0.16642534951412996,0.5705506899285111
4452,0.5837709291279058,0.46359415863460207
6639,0.5677294011126505,2.008637947342231
6514,0.17507849054202498,0.909639415458323
7173,0.43964742125524103,1.3560546066246593
6997,1.2745231220948072,2.2987384875199814
1974,1.2850992934698369,1.9686731789543737
1269,0.5931935024112,1.679522308614947
7197,0.35039251692919643,1.0720963697035424
473,0.3084509022732604,0.7503736573385262
6512,0.19630120547803334,0.9785465551767978
376,0.09989902535236989,0.9803675370628747
6415,0.7294201597732164,1.8118232991408905
6113,0.8223902941099279,1.3434553759815937
5914,1.2573508668628635,1.6197589630883291
5267,1.0524814051690692,1.1908218485709814
6386,0.6662641509066265,1.9597237292995047
3288,0.11204192500392597,1.0452948545700789
6636,0.822269780976108,1.8189070491531167
4819,0.43765465463478315,1.2629496989410842
4829,0.5928410159605346,2.484769305581082
6452,0.3542554699664491,0.4075566332088904
531,0.9344195745340185,2.030484572038319
6551,0.45440651730154663,1.9096327846985468
225,0.9770057211545784,1.9837413742793855
6123,0.7600980433443445,1.619078149946131
7625,0.29289436831024035,1.4454925570944681
6407,1.2312365532925935,1.799989422510646
7657,0.9365001965987767,1.602282380142638
7354,0.35420340832232694,0.701473307281401
6808,0.20288489310583557,0.6295168912560604
5132,1.1885718693799174,1.1496489755542993
6313,0.25507007026902573,0.9129241639006584
6442,0.10175553792819136,1.329721885629351
6901,0.39420249423961284,0.9318421271942015
7755,0.6682381799268856,1.9643512331015704
2497,1.5419258234085926,1.971675853376223
6571,0.7080728436507582,1.405995000279083
6844,0.3107033977687633,1.4292395939568436
7597,0.3241393701035157,0.6008404824177043
5209,1.0084789648916952,2.2454335742654252
7013,1.2803687993289605,1.9113456174344916
7165,0.24181323619473954,1.3507461475616027
6822,0.3552814526147012,2.2688734771577597
5065,0.30324173845080304,2.262662409886751
7132,0.4551983595285406,1.3888487205082434
6682,1.391994367926315,1.7811387007540294
3088,0.4596893051028927,0.8488840935262424
7427,0.4435663251401667,1.497540210320749
7672,0.6482534432239256,1.8847653903353028
7478,0.5193382239541868,1.7005332471434162
28,0.2808868719063258,0.45370491220955156
6737,0.1957379346952785,1.2876949892799723
32,0.3854922535782549,0.6272441469876271
6444,0.11398879169505031,1.2619668935799364
5303,0.20587595423042493,0.49600015270435344
6849,0.7346192132373022,1.269163237344193
7456,0.9274975282587234,1.5060250630128797
5107,0.4894144278400686,2.188625389676627
5233,0.9906578103880849,1.377996974203015
5792,1.057433226470206,1.5017231184879913
3952,0.8259952674873932,1.9395109996174975
4209,0.6480522298215152,1.7001706945227855
5901,0.6274453272877342,1.6998264172616184
6706,0.9938696643363757,2.21768647283589
1419,0.7979661845474001,1.9039158577980102
7800,1.341012524741425,1.0942211391086092
5328,0.10248313244636126,0.6345861526029447
6977,0.8360476042770327,2.1337392425491326
4423,0.2729257816590755,0.4382834291116475
4307,0.8909415302845849,1.7182677770551753
6570,0.5930849403512294,1.4871050201456588
5917,0.7201775326295732,1.6197589630883291
5520,0.8990148321033222,1.5684177206241694
6762,0.28191992843429386,0.6612483178023226
6100,1.1484792238794863,2.423261980287104
2923,0.8592226174146766,1.274650753476437
5294,0.23861939955145256,0.5578499211194283
7337,0.3384617189404035,0.5508013002532024
465,0.3127548493206867,0.8772967243073346
6820,0.22691398469013066,1.832975740021824
6156,0.23448650884012956,0.6713147824194943
6021,0.7841907979945003,1.760085345050959
6475,0.3478389537617607,0.3254522382765819
5816,1.030328755220312,1.7629283722354692
7360,0.18776292469111505,0.6172747283477455
5995,0.9963072322737858,1.5207507232617576
1033,1.0535348202711068,1.949232209630792
7072,0.2236112142615488,0.4877560117491797
1996,1.363584904652752,1.8178023019640606
7118,0.14516819584725135,1.6474891074725366
6786,0.26738679231844054,0.4055601714507878
7064,0.28602591397191024,0.7914585950474776
6148,0.28823028060504774,0.3732534915972545
5276,0.16763358406766046,0.8470062861817804
6610,0.528403828667408,0.8384462004456301
4849,0.6059590500499051,0.9822477325104022
7598,0.3942044939338688,0.6008404824177043
7308,1.3457369418795262,1.2337122254651833
5140,0.47239992121651186,0.7713793362696445
6615,0.38488056923004454,0.6779105919812982
6262,0.7177531312942121,1.258997759291806
7590,0.5130378539831184,0.9260486809842334
3961,1.0968762411676511,1.6305795419716471
5246,1.1842985414792424,1.7866447272332098
7277,0.9769923796948068,1.2977704537120711
3423,0.7798652549534714,1.6621822878951826
7045,0.22692103814243986,0.3500456634875642
6195,0.2446612761075223,0.47514332018533906
2109,0.27262672487427025,0.4422211550194289
7025,0.898414365592216,1.2404032655416404
6884,1.0186025256564541,1.8166662018420976
7106,0.25173432089777126,1.6569614037156764
6108,0.8390326250807535,1.3434553759815937
5151,0.3794180734705556,1.154710110580657
5221,0.892016535512705,1.7225704071675938
4841,1.0640501678167134,1.5960997606470866
