4648,0.9077652481959502,1.6798958213480617
965,0.2129761516770024,1.1710136969277576
3193,0.9931325098404881,2.196186509750375
3754,0.9950184617029479,1.9992610663920145
2609,0.9022964837485519,2.0043736515510404
3926,0.8870041751703724,1.738116944799408
4479,0.29155398614285455,1.748014817101377
4066,1.1911593896927557,1.7128529582296723
3265,0.19634495070663266,0.3586711919650789
4496,0.7329244389292399,1.7572373547307518
3714,1.2551025898128803,1.9994442514629052
1779,0.2549723954623514,0.7539304734763423
3838,0.2793682376756441,0.7228807174317406
4086,0.9837045916345457,1.7769325211278595
4258,0.5893590978839652,0.930507382467841
4388,1.0351766300554253,1.4919481759679392
3316,0.9841530761054094,1.3315158976101051
1423,1.0816440605328472,1.94364794168314
4149,0.5883863667168766,0.6801779452130152
1501,1.2235636516279849,1.5999975718532606
3314,0.7742224542577492,1.3970835371393957
4246,0.7989817433950811,1.2238621820248747
4780,0.657748212346391,1.5945674696441707
3217,0.8613602285158587,1.6984613637440922
4990,0.09855674414040794,0.6049053947262835
5042,0.09820799407338811,1.3617155450837497
3330,0.48080476822888335,1.4232565877388974
3615,1.0283371182471768,1.1850741281621004
3648,1.3013394054489187,2.178342059973028
4168,0.24414471781055025,1.061743683390408
3589,0.9647748973484186,1.7821839176021501
3083,0.4438261849217787,1.085189464822568
5154,0.5972402515849113,1.0248066525951018
4454,0.27309676909518205,0.4803336728121373
4355,0.9007926074164921,1.640506803814478
4769,0.26331260718618144,1.5266175449187283
3075,1.291561722015298,1.424639877108283
2716,0.2566416345044254,0.9595640600330066
2642,0.10436517585965659,1.4231768686971218
2857,0.9927439225285928,1.9019250294099428
4964,1.186008868466681,2.0369575376955193
3392,0.35207955870951857,0.8459100399347699
3892,1.3851055755780262,1.6617207036215615
3889,1.0422307253992817,1.6617207036215615
2773,0.6436438788414637,1.6269561485244215
4139,0.16024482830164155,0.33629656883611814
5015,0.3707723905255903,0.3819462520556361
3222,0.15091539683893335,1.436904948596559
693,0.7628389125452546,1.7302551761667384
2769,0.7222379410144347,1.7041815150727933
4376,1.000599222866888,2.361770735271853
4565,0.3537503799943882,0.7485001649604799
4985,0.116125222583675,1.4874281506212694
3853,0.31583767205272,1.6918530852415732
2864,1.0575994355361276,2.2587932714255405
3881,1.0050672706347086,2.368579576299413
2883,1.0139660432894293,2.1569000349906293
372,0.09989721452106005,1.2946951141602094
4383,1.4090337819705356,2.283107081975075
3949,1.276255040783842,1.6984765914142856
2471,0.5113705820498338,1.3010291639017992
3032,0.529250426554326,1.7624738861291827
4173,0.2129761516770024,1.1332020609989188
4754,0.09080251759647508,1.4193524381418154
2474,0.6213889250396089,1.5621178467555676
1795,0.34951373598640906,0.6691045701387413
4812,0.6590942245816153,1.6668011161454546
4365,0.9543865375426985,2.011711746697218
2710,0.14466866567920914,1.2291631053511625
5037,0.2192559218258109,0.7322891760087022
4779,0.6831118864173339,1.577299264104769
3525,0.42442521463460525,0.9772555239748623
4570,0.36710845719367163,1.0195141259487577
3826,1.3239078336651642,1.3805888286849515
4354,0.8944622370846528,1.6270181398624255
3157,1.1733884382325952,1.891556800291914
2728,0.3678092542199702,1.6621822878952635
1070,0.6504358330307202,1.2870258561467947
4819,0.5172683714060764,1.4850161029886504
1534,0.8281892768959759,1.8508113784102211
4632,1.0516346970709947,1.776410468661375
3884,1.2120988865344462,2.1220208534857847
4089,1.4012495823591204,1.7769325211278595
3701,1.6518139170212516,2.264784247308223
3862,1.0603345723991642,2.2855041893651262
4902,0.9595930899102135,2.3863529679961384
3663,0.8648987615915225,2.1604963961950663
2734,0.2812285562437718,2.0178095700841934
3096,0.4830221160628036,0.7246829451495133
3939,1.0872827448605031,1.3893713305339803
4798,1.5811388300841904,1.8206947450346587
3344,0.5641503059058545,1.3488975519413557
4690,0.7510752651883972,1.5744991174869984
4475,0.3293080804598748,1.2686920128502286
382,0.31240044226200975,0.9293174812802562
3505,0.1285424209455612,1.56870568439817
4574,0.39463878049517465,1.3335361558012169
4725,0.27373141945112767,0.6779986586471547
1075,0.8504750204718196,1.7003498170707856
3287,0.1031648498513338,1.3548446163304817
3117,0.7272908772791299,1.4795803646616554
5166,0.5795641774638479,1.4433258514837293
3523,0.22813156328614662,0.745655295959973
2859,0.9453704011107588,1.9019250294099428
2947,0.3356840454056984,0.6060468512781388
3391,0.31723365589361874,0.8459100399347699
4101,0.07567061527174457,0.5574407857073302
4304,0.7473959846716524,2.096019396748297
3660,0.7890015816906873,1.739342104799162
3340,0.5847760022322799,1.493937950143496
2848,0.7908169482214715,1.9457851458662305
3101,0.5423087369342798,0.8210763946901917
2901,0.8772846223552548,1.6649997310771187
4842,1.140357989836009,1.4284546699632974
2707,0.17992102049538583,1.332113597643983
4758,0.11204192500392597,1.4193524381418154
3297,0.20774385906322498,1.0997987166618475
4884,0.383995353797879,1.4173895920389274
3264,0.16194499160406142,0.3586711919650789
3084,0.4933728580442592,1.0037670626850708
4069,1.0598209866947519,1.9013795862626355
4562,0.3697355818099162,0.7147621810610443
3381,0.39628812763580035,0.8551278713273697
4468,0.20996064142331683,1.273741850726271
3060,0.3821258626600098,1.3851096722766238
2743,1.0412258819949265,1.5569485857101806
5170,0.9101099458152858,1.7258697952329367
4630,0.9186784807449261,1.8416717935755964
4837,1.1608303266605529,1.4284546699632974
3001,0.24363302078500548,1.2644613882693059
2967,0.5362051706454363,0.30482586333003353
4928,0.6337102405939931,2.196313390541672
4155,0.16569976341170642,1.1160987879936035
3768,0.9185808405469847,1.8486141093232564
4321,0.8885397151367612,2.378536219206863
3850,0.088547347483666,1.6918530852415732
2915,1.3947283367352397,1.7663516436069155
3925,0.635422785667229,1.670273737061446
4560,0.4918759008080974,0.7147621810610443
4641,0.9502497336321801,1.5904606584754892
4787,0.6487370458194882,1.947040081090297
4165,0.20036605941589705,1.2551870511396381
3364,1.1457254312470961,0.0
4857,0.2700180202185363,0.7771191048680718
3973,2.9822716984172073e-15,2.0549210731270473
2698,0.3249276219192805,0.44833913317619767
1794,0.31835138450893874,0.6691045701387413
4707,0.24368937211526764,0.4911502658768139
5081,0.6503097010236228,1.3669103460168621
2776,0.6864830803632646,1.472221605812425
3820,0.988875449065117,1.8006425285354395
4081,0.8597863287748887,2.1760678701241236
2834,0.513648766459343,1.4889181632052282
691,0.6723554783795169,1.6626950664694815
4827,0.8393083625142578,1.9276550813990008
4063,1.3187669891946565,1.7128529582296723
4862,0.37540786586995406,0.5411655124172396
681,0.2153024816721029,1.482084047824871
4756,0.14435298847977981,1.4539347656692703
3669,0.7933962196126367,2.261721351954417
3515,0.38339534314561313,0.8314505018161181
1077,0.40220439252040896,1.754388670472589
4762,0.14466866567920914,1.065015353425261
4148,0.45589217701161333,0.6801779452130152
1581,0.548934590817508,1.7465011235932364
3882,0.9480649719119276,2.368579576299413
2693,0.2675258239110461,0.44833913317619767
4047,0.9870131382713908,1.8495602812273804
4888,0.7880095297639352,1.855729228757615
3806,0.23888469620189373,0.7410027961330072
3601,0.6244241733782785,2.1961865097498037
3120,1.1654804600958284,1.5041975365485918
4878,0.40941122559323107,1.3933801047613992
3067,0.3288353335718628,1.6054813403046684
3986,1.1381923774406033,2.348154925492778
3390,0.4597150614471152,0.8459100399347699
3736,1.3817544090049365,1.8997415158250863
369,0.09268446332188757,1.1987400282991334
3379,0.42354759088823596,0.821715480956933
4112,0.288303607172072,0.41761598614325857
4233,0.9355251438960074,1.5229604686229372
4289,1.0725497868619653,1.9922345658828036
4136,0.1750406211642807,0.28600127347112625
5155,0.6982916681519316,1.0248066525951018
4008,1.1719993397678565,1.8700962702116308
4650,1.0004702589533048,1.9467993238951193
4160,0.13633040020846313,1.3322760403115232
4877,0.4996355077917669,1.3933801047613992
2942,0.22189087082074727,0.5064924458953325
5095,0.6278334824619726,1.3728979810572792
3867,1.1067922600415567,2.1788132532092996
4701,0.21558281246938085,0.7398915498284108
3092,0.3940567575856106,0.6232257922885226
4154,0.23683116896888284,0.9633593897567869
3817,0.5808441492411468,1.2737006232464163
972,0.4802753326322791,1.7230651068322347
3033,0.539963107639784,1.7926161189299794
3661,0.8221093048057027,1.739342104799162
4186,0.8863682625225211,1.6716615017961092
367,0.17809264328602867,1.019748852001489
3928,1.062971840183155,1.7950575975509988
4037,1.0319775434980605,1.5008921771994144
4719,0.19272497149585602,0.758967448041212
3679,1.7112436235136614,2.268429788371504
4882,0.8075716135100822,1.3933801047613992
3843,0.24584899432848925,0.8810949882359839
3767,1.3288875374806717,1.8486141093232564
4002,0.9337080412588824,2.0693902668502973
1796,0.3278795584080471,0.7632616921342525
2612,1.032943832734363,2.3317072307335036
2785,0.38200953733582016,1.882619998403615
2725,0.19380631201035026,1.532855078237675
4194,0.6303011247224701,1.8926341028095408
3946,1.1433239009500593,1.7815093036570668
2987,0.43144163955675763,0.7938947521990515
4484,0.40725947019670194,1.9561466551613467
4234,0.880802991013288,1.3831759738556604
4410,0.14896827676530877,0.48846835666076904
4626,1.1112626255307714,1.7160898776027664
4953,0.8908213919051504,2.33634979929995
3203,1.1741366386216778,2.3518875937221213
4088,1.2640011163091367,1.7769325211278595
2842,0.5337654427790981,1.583058187791276
4006,0.934993637441567,2.360075046394784
3818,0.6240956426709167,1.5047755041738464
4945,0.9866161670273407,1.5716862850266133
1069,0.6949997611849668,1.2870258561467947
3966,0.9253510908263868,1.5461715691463311
3965,0.9782782717129054,1.6228024641870404
4216,0.6684260203465141,1.3792137973323317
3517,0.2893758227604233,0.8314505018161181
4970,1.119903507924187,1.6326156750999594
3397,0.4388689425553179,1.031786252742716
4214,0.6902636267433219,1.5656161609821924
2958,0.24629508933257757,0.4535085913858223
4689,0.9078695567649144,1.5744991174869984
4717,0.4104519697035579,0.6915182235318031
4113,0.20478149267837442,0.41761598614325857
5029,0.15777007712092103,0.3164003358423015
4524,0.6343939139180553,1.0965730859322254
3271,0.16474321428666447,0.3586711919650789
4188,1.1857532656600571,1.6716615017961092
692,0.734407205899135,1.6626950664694815
5005,0.30963588417129634,0.5588375729816768
3664,0.7433187948772875,2.177194400921727
4471,0.24150325318685759,1.1628313283435425
3042,0.4864439431627244,1.5230227965987297
3896,1.1769934528138242,1.6617207036215988
4245,0.6741452152485288,1.2238621820248747
4408,0.1883858228372074,0.48846835666076904
3359,0.9022964837485502,0.0
4662,0.9708325532154127,2.4867102842560427
4977,1.2706130838784606,1.6414184309386322
4951,1.3050653285285052,1.6790269768056483
5050,0.20350113957062746,1.0174330068909987
3376,0.3143458834064835,0.7921627728772053
3951,0.8451542547285174,1.577444382883676
4624,0.779112294351236,1.776410468661375
3546,1.1804447266616953,1.8238045815892998
3852,0.3372151491737303,1.6918530852415732
4938,1.2832541799484085,1.5716862850266133
3936,0.9576479143215103,1.3893713305339803
4054,1.2739102672305267,1.8495602812273804
4481,0.22418803502929038,1.699033765531871
1506,0.8562359237673459,1.5999975718532606
3039,0.7671184471152411,1.5797109487093928
2761,0.6571584538693361,1.8211653059588175
3655,1.3936734011314191,1.5171142186269686
3906,0.4372222407425085,1.997746917634851
3263,0.17422664129694035,0.3586711919650789
5061,0.1419854739221248,1.7175153506948626
3682,1.2368707803460253,2.1141477919565115
1424,0.9587390550590845,1.94364794168314
1421,1.1059767368995626,1.94364794168314
4935,1.20131137224831,1.8313499105862563
4049,1.150660196168428,1.8495602812273804
4921,1.2566778790452937,1.8919874775063112
2742,0.9708325532154127,1.779302105722883
4917,1.0694948192294964,1.9496652578962308
4982,0.7674580358991183,1.6414184309386322
3404,0.870134884223319,1.5960713652070824
3212,1.2396487881709561,1.7551626362032955
4777,0.7614563235092944,1.6177335997368651
5108,0.8274111758566812,1.5696983994549536
1692,0.7480335951281006,1.482218935785248
3402,0.7647929676365176,1.5960713652070824
4559,0.48757338923319343,0.7147621810610443
4005,1.0791947225970797,2.360075046394784
3241,0.1652393849004398,0.37962432916318445
4987,0.0824106482585231,1.409204531881271
3238,0.12798380001017337,0.3865572046705161
4333,1.0488472094106873,1.3195102984905858
3292,0.17230036172532687,1.0548937915479017
3183,0.9315148304567824,1.8269448933581331
3577,1.176818677548983,1.9480338984253573
4064,0.8414398775961145,1.7128529582296723
4169,0.19668459330179267,1.061743683390408
2149,0.8103281247076957,1.992047682224172
4367,0.923367979597434,1.9563876141448862
5125,1.1350134467702886,2.4246987708644525
4926,0.7303625567541754,1.9405488050716537
3231,0.17439992397092177,0.5377008441575138
3051,0.7686937446249412,1.4436143004659052
1584,0.467273748308959,2.0811063998962602
5143,0.3760106740231841,0.7551899326029444
4908,1.1270439218253845,2.4927241726851364
3915,0.6742935454013741,1.7833830695544384
3722,1.2343205169066949,2.0677733479818294
5114,0.8339807443155532,1.8834031365143535
4541,1.2739929591624484,1.8423053644265985
4710,0.23930875707549504,0.4911502658768139
3631,0.47925409648139095,1.6906420068574755
3544,1.1287620020040408,2.0569613505468674
2999,0.1338694990184071,1.3308530374434282
4105,0.2543947500071358,0.5241648591321759
4730,0.2002144691030722,0.32500358380880817
4033,1.1589645314350967,1.8205506552145552
4920,1.0989224058173164,1.8919874775063112
3954,0.7519346319799087,1.248393147381678
4881,0.6139001468168713,1.3933801047613992
3815,0.6738830944335615,1.2737006232464163
3542,0.9987157216506051,2.1290580577957403
4269,0.4573616078460103,1.0539909455627778
4706,0.3062615725210084,0.4911502658768139
2613,0.7077195538998023,2.443257967612169
2892,0.7495649859271835,2.0580099371014753
4464,0.1424539438646949,1.3234575917442308
4017,0.7291478816594607,2.2229289562349437
3063,0.5644376772520862,1.399487355663845
3871,0.9797133310087967,2.165339538808919
3082,0.3970662681633192,1.1999239662275154
3136,1.1706657918270285,2.255074874855319
4473,0.32156660693918965,1.1628313283435425
3506,0.10436517585965659,1.4293198741808302
4814,0.70485312109545,1.5732325461492718
1777,0.43578247613695137,0.636922083538934
3652,1.0057712300036323,1.759641333945605
3692,1.154298950349185,2.0712993328223765
5131,1.1382483948345852,0.9974147619582774
4766,0.25624302636926644,1.065015353425261
4402,0.15608346840683235,0.578676590080901
2801,1.1357555365980738,0.7386643057390886
4904,0.9219436874746031,2.3370821558624693
4493,0.7013005124752529,1.7613711261653429
4114,0.22256735119165932,0.41761598614325857
4170,0.24930881140428815,1.061743683390408
4024,1.3703979687234111,2.279606882923756
3833,0.6514797507857121,0.7192084340701626
3076,1.5592220203354048,1.2960686566716686
4295,1.1145091090974633,2.226687632844837
3777,1.083636668938185,1.6595298600978536
4331,0.9433494750327418,1.3195102984905858
2831,0.3488354576005207,1.0286843066518223
3810,0.7629429991341581,1.1155071729204036
2938,0.29633973575572864,0.6588417513255583
2690,0.15580677354249442,0.3457028006548177
4744,0.23285220449301372,0.0
3189,0.7979661845474001,2.2519995424771055
2899,1.29935540976368,1.6649997310771187
3861,1.133973469554919,2.2855041893651262
3135,0.9234429811707666,2.1556925867167114
4513,0.549438210095139,1.5348703521015672
4109,0.29079113185659977,0.4492012143389907
3550,1.151439827791973,1.4904084627457155
3225,0.17556119427220182,1.0876399834743005
3650,1.2068748904047122,2.178342059973028
3103,0.31723365589361874,0.8328082753296593
3232,0.19107399059672894,0.5377008441575138
4956,1.025978352085154,2.33634979929995
3322,0.8796472562287428,1.3315158976101051
2894,0.940260122305465,2.0580099371014753
4967,1.1451905805522216,2.0369575376955193
3169,1.4286999930513846,1.6346301400953458
4051,1.2022543904994778,1.714070557666341
3047,0.5271308601849958,1.478020763686352
4463,0.11866451333184609,1.3234575917442308
4864,0.3143458834064835,0.5411655124172396
2897,1.352106163548021,1.6649997310771187
2970,0.26695502874006344,0.29584762814943877
4124,0.2477874158162264,0.47148202166449477
4396,0.1756589201793804,1.4144646959035356
4339,1.0783523059386664,1.492952973541078
3565,0.90791019848664,1.7914713585492887
526,1.5297221373792464,2.389450133800057
4867,0.34135669641282623,0.5411655124172396
2703,0.08683991796560485,1.2484515916126742
3280,0.18414382962701167,0.8890947116328299
5090,0.7977299834772515,1.372430602661254
4016,1.1855809042607783,2.1750197895567194
3219,0.700999250050716,1.6984613637440922
3551,1.151439827791973,1.2489329322758775
684,0.1376999885450675,1.7812196630005375
3278,0.27309676909518205,0.5108964643092888
2963,0.3728859470828858,0.5127895150863193
3827,1.4848803251265115,1.0328659337565362
3687,1.4091336404618753,2.036739305108821
3036,0.623037379290166,1.6964230900215267
4621,1.0208363907317424,1.67472602548381
4121,0.32888614093873625,0.46744027849143793
4260,0.5576971403013917,0.930507382467841
3709,1.183375595907282,1.9994442514629052
3358,0.8450459372519217,0.0
3773,1.077449035717332,1.8859504877660864
2861,0.8829110573353957,1.9019250294099428
3984,1.1613514649616554,1.9074662971732275
5079,0.821565490102019,1.3669103460168621
4655,1.132001687996996,1.8771071766469962
2705,0.10730188574117687,1.332113597643983
3782,0.9121653827713287,1.6183154952155085
3964,0.7166341906372415,1.6228024641870404
3291,0.14699730755537826,1.0548937915479017
4775,0.38737506468443694,1.6743747359159233
1502,1.2595505946521262,1.5999975718532606
4228,0.9270986524262261,1.9997231354892715
4566,0.32479787703261187,0.7485001649604799
3056,0.4014688704972467,1.3851096722766238
4526,0.5903401109771178,1.0965730859322254
3840,0.45673995980387805,0.7831427197019796
3799,0.4916489219840991,0.6457357510319582
3327,0.5167514354078677,1.5051808222036611
3520,0.1796987129339241,0.5189807028026547
3380,0.3628638515633685,0.8515374770439885
4420,0.2537973652466764,0.3834360121353916
2730,0.4968127902696408,1.6621822878952635
3704,1.4273769466470303,2.2224569114449544
3816,0.383995353797879,1.2737006232464163
3305,0.1974329150493236,1.8662291802721693
3003,0.2668179268649727,1.0147510133395827
2867,1.2747022457305552,2.2010933566600728
4554,0.6907647683763127,0.8640792446695544
4949,1.0827763644852633,1.6790269768056483
5022,0.2074693242620663,0.32668789989326913
2821,0.3098716990686676,0.5644481275796579
5144,0.35600870632746345,0.7684621585724001
5084,0.8785544079816967,1.3669103460168621
4546,0.7184680886171325,1.5067352537482397
4310,1.0764659344625387,1.6894553343682222
4918,1.2691546546110433,1.8919874775063112
3604,1.0536890897157416,1.8160302265151806
2461,0.5504310788016541,1.489126015197354
4330,0.861979869839852,1.3328444428280404
3899,0.8689021964596905,1.6617207036215988
4456,0.18414382962701167,0.7816178782330371
4711,0.22429401621237363,0.4911502658768139
3622,0.6315129956391526,1.283011205578336
2702,0.0869534120198116,1.1759924726718547
1787,0.7589738120475011,1.1317183306153955
4363,0.8562325094789901,1.9563876141448862
3345,0.6230863869929547,1.3488975519413557
4644,1.0460002198297627,1.382006176900338
690,0.7297270821167146,1.6626950664694815
3199,0.8868101760469669,2.2519995424771055
2837,0.6849126356689695,1.583058187791276
4875,0.3228670183001241,1.2520190767582762
4001,0.8707102208201275,2.0046579228139882
3960,1.2858565688908814,1.1813819310285045
5058,0.251088027605581,1.404063154685551
3713,0.8112187031796495,1.983131059451817
3408,0.9002302090325555,1.4560076717147867
3581,0.7495649859271835,1.8707133777659795
2920,1.0028896371213063,1.7663516436069155
967,0.2325575530004181,1.597950890640158
3747,0.7356260058082265,1.7852109119744064
4058,0.6888135360002462,1.714070557666341
4989,0.09108317107560794,1.0241543785301113
4498,0.865780123440947,1.7572373547307518
5064,0.19757075902957102,1.7497459231155406
3124,0.7428920490758816,1.8357842058485436
4996,0.2622782159684442,0.5599371962563873
4247,0.8900142005452858,1.2238621820248747
4731,0.20453941540324574,0.3176730937147664
4874,0.3978145320463306,1.1926286572488785
4277,0.7184025316175336,1.387607749222531
4219,0.24503904863383125,1.4898152590004916
3923,0.9078630146099954,1.6576542662114566
4807,1.0800619023436953,1.8206947450346587
3007,0.34530784368977435,1.0147510133395827
1083,0.7638477212512189,2.0533243103030188
3114,0.8453856974398939,1.4216578127919113
4120,0.3095156260651852,0.46744027849143793
1587,0.6230863869929547,2.362116193592828
4447,0.1988360560858152,0.3520281457460971
3599,0.9347769528850968,1.7629399123977378
4931,1.4812539231060995,1.9419890239009547
4543,1.190813742064341,1.7905825899556673
4012,0.7533204703584858,2.1750197895567194
3383,0.31093830079795115,0.8551278713273697
4143,0.17557469020752353,0.4969702873798432
2910,1.082034853989701,2.0131568372339115
2759,1.1608205448932594,1.6573676214704813
2879,0.9174315763919034,2.089426054578108
4106,0.2674199464636492,0.5198170391121737
2990,0.138407782277791,0.8548788708116696
2619,1.16405492283648,2.1480124007355297
4872,0.39497642337279343,0.8523340558456495
4681,0.8543114573830639,1.8729584778631374
4436,0.24006346111797333,0.41852620212436176
4073,1.2097627941760918,2.10179670025781
3078,1.099533521855272,1.2315188795861465
4873,0.3127548493206867,0.9973945394566011
3819,0.6368363975654039,1.5047755041738464
3752,0.8008877845177292,1.8750016528969327
3976,0.8960198207131662,1.542650307956114
4718,0.27913641852454063,0.7140296726797453
3057,0.33720235746364974,1.399487355663845
4992,0.17272840579874688,0.5599371962563873
4231,0.9384363599181963,1.6164255653690587
4118,0.32901939318608314,0.4165361917201985
2866,1.070842447280074,2.2010933566600728
3014,0.25624302636926644,1.7414647652763453
3978,1.152704817012224,1.8390949302521462
4907,0.9355654333995853,2.4490927198392307
4515,0.6766934997551273,1.5579357156692046
5171,1.0022412653461794,1.7369384922027329
3394,0.39849430171828454,1.0001648542315378
2739,1.378089064721079,2.1878154898627398
3301,0.28476762109496734,1.583408914655987
3044,0.7336585176363359,1.478020763686352
3797,0.21948469651787297,0.6670582842921311
4087,1.2819730208701303,1.7769325211278595
3995,0.9278780782445254,1.964354421584209
2699,0.23753237220405085,0.7897834469129694
3828,0.7883986954426356,0.7228807174317406
4390,1.0633898178136658,1.4919481759679392
4351,0.870047375748308,1.4997699421553443
2607,0.9136069805188652,1.9501139156433613
4976,1.1682768201924971,1.6414184309386322
5028,0.12328135844729243,0.3027755747635453
4824,0.515483488641704,1.5858606846260095
3651,0.9562014065574574,2.028894576753193
2789,0.535663855400943,2.1262289810193438
4014,1.1862368361580249,2.1750197895567194
3286,0.12602031944612582,1.3548446163304817
2992,0.11455439168423913,1.2544117569101765
4122,0.35784719860312164,0.46744027849143793
4350,0.8125569908571787,1.4997699421553443
4145,0.17708878877492978,0.4969702873798432
3115,0.8179148552103032,1.4216578127919113
1776,0.32058350239224276,0.636922083538934
3678,1.6155752004901436,2.3123136532885153
3548,1.193284863224355,1.8238045815892998
5088,0.6776990379990546,1.3728979810572792
4651,0.9426504735894379,1.6798958213480617
4282,0.5464951432696131,1.6190839454977801
4638,1.1841036578382647,1.5904606584754892
2966,0.27732138559384456,0.3071159922144746
3332,0.6060803083228959,1.4232565877388974
3516,0.6568217771570419,0.8314505018161181
2615,1.1782022250005801,2.4527193689503983
2891,0.7495649859271835,2.1215706316211547
1427,0.844251255245414,2.61102981778285
3409,0.8902813027637406,1.4560076717147867
5030,0.15788461372804313,0.32668789989326913
4749,0.3001946801671054,0.6776962456884582
2852,0.9509371746203694,1.8569858256579332
3235,0.2827403031930434,0.5222659895074974
2833,0.6712760792605835,1.384577535747436
5139,0.48958759261698576,0.7891695993709916
536,0.8954954288483974,1.7110811676882036
4628,0.8427253995412544,1.7160898776027664
976,1.0085291456583216,1.6923944397699437
2708,0.1537467145503687,1.332113597643983
3167,1.2770912713631255,1.7027708352187085
4070,0.9425310114408002,1.9971011577454127
3128,0.9393974931239849,1.931456474274931
3141,0.7654396330015543,2.0246763962939283
3090,0.6029239252637993,0.6232257922885226
3081,0.5674906664067,1.2092402321817166
3868,1.0972995379971349,2.1788132532092996
3173,0.8470397594183295,2.040981619645651
4317,0.7954363296947928,2.124344550779693
3158,0.8643445329178029,1.891556800291914
2722,0.27325968396527167,1.3876878886869335
4389,0.9517750569099788,1.4919481759679392
4680,0.6115793239686109,1.8729584778631374
5063,0.19647338201806713,1.7497459231155406
4714,0.2809223912028805,0.5704246366401978
3137,1.2463467878902943,2.132539982331647
3309,0.469027470859778,2.0815885674134447
4205,0.537253747650506,1.5953124905035223
2788,0.5858451186948298,2.1262289810193438
2778,0.5791501690994132,1.472221605812425
3046,0.6915575987718481,1.478020763686352
3131,0.864146508717084,2.3123798544366205
2608,0.8999988678858439,1.9501139156433613
2727,0.2856528683756087,1.6621822878952635
538,1.03702205176711,1.8463221849502567
2885,1.063389817813666,2.2803698642956527
3164,0.9633651395969686,1.7794191147596297
3983,1.1230524954260723,1.8390949302521462
4440,0.2023751407580033,0.3520281457460971
4568,0.36871783597054564,0.8834646182923616
4757,0.1031648498513338,1.4193524381418154
4161,0.1161632790599385,1.3322760403115232
3694,1.2114947199943404,2.0712993328223765
4181,0.33228129659406674,1.761192970709043
3195,0.8342601174901646,2.196186509750375
3100,0.4559114290359791,0.8042404918952236
2911,1.3865287045154597,1.9612328011803657
5106,0.4895989220262744,1.5655563104626298
4032,1.0821583891647306,1.9237796430903242
4343,1.1694937281174995,1.5987790376753899
4313,0.7248587294046298,1.8317220336950344
4738,0.2180689365299618,0.0
4335,0.8802723283647456,1.3195102984905858
3284,0.13759067807572165,1.3548446163304817
4696,0.15995316285695654,1.3263850758729652
3677,1.4500979785674764,2.3788633266511203
3825,0.9650809991328676,1.5716713610901152
4986,0.08165969950046827,1.4874281506212694
3352,0.4686291053603733,1.3434552283685732
4913,1.1729380093199637,2.268732484854919
728,0.5300977491235718,1.590666315846548
3259,0.25634971225483294,0.4768872904094406
3307,0.26325717911249213,1.9233889480595388
4940,1.0048321831593612,1.5716862850266133
4939,1.4793756885362497,1.5716862850266133
3941,0.8200079238206625,1.3893713305339803
3282,0.1163847969298184,1.2167006234984554
1084,0.8407963459421216,2.0533243103030188
2943,0.3421497951914765,0.5064924458953325
3588,0.6023494777563104,1.923872585427054
3762,1.2802208662772463,1.9992610663920145
4084,1.239466156496453,1.7769325211278595
4041,1.017403029993719,1.5008921771994144
4198,1.1697765997391074,1.834854791885668
4199,0.9647529295566583,1.7807611550328497
4912,1.2820553033395112,2.279111421204511
3347,0.4182822946485591,1.3488975519413557
534,0.9738650377164161,1.5759992881854978
4801,0.6942611475729685,1.8206947450346587
3304,0.2710997239352396,1.8662291802721693
2782,0.6511493200894019,1.6663953990790876
3990,1.025978352085154,2.0623786643946533
3370,0.8711771826880401,0.7192348461064266
4393,0.9810956547047864,1.4919481759679392
3133,0.7876603995747158,2.1556925867167114
4462,0.12602031944612582,1.3234575917442308
3658,0.852225637276094,1.5839013362467074
529,1.2779566641407603,1.541460364813322
4962,0.9693747085046817,2.0369575376955193
4425,0.20493603852348752,0.4039145843041415
2909,1.4013153149714133,2.032155285410843
2838,0.7791938072235174,1.583058187791276
4429,0.2565423383092136,0.4179984079686375
4997,0.3850459374388179,0.5599371962563873
4055,1.2275790913710196,1.8495602812273804
3570,1.044684644977504,2.0270562019609994
4270,0.4178059429508127,1.068243160842961
4958,1.120217439361465,2.33634979929995
3122,0.9560821513237406,1.5041975365485918
3901,1.189007800541868,1.7823486558510226
5052,0.24930881140428815,1.0174330068909987
4297,1.5591325993967455,2.121535833063747
2868,0.9738650377164145,2.0186690040623483
3905,0.5330197853491114,1.997746917634851
3549,1.0325468024097695,1.6465052972576126
3895,0.8370773814115254,1.6617207036215988
4728,0.2954901906908031,0.41560358066664455
3258,0.2954901906908031,0.4768872904094406
3860,1.1403369238806893,2.124377826329296
4303,0.940260122305465,2.1163884386892233
2977,0.15388755515837976,0.38836391573751666
2913,1.5444356980992542,1.7663516436069155
3644,1.3223167874005282,2.344623278869584
3812,0.6229461787243907,1.174943481711842
4144,0.17705620943035935,0.4801842253699796
2770,0.715576249894026,1.7041815150727933
2473,0.441632346077836,1.3010291639017992
3494,1.1252548653899073,1.3306841024909526
2995,0.12815924527494058,1.3601804803484103
4426,0.21795179147804938,0.4179984079686375
3636,0.40900794957934977,1.8505382243512438
3962,1.1245432301751968,1.1813819310285045
3855,0.6294092893943801,1.9433820469886751
4829,0.5928410159605346,1.9170082257857846
2949,0.29758678766614133,0.568692437067273
3050,0.6877628621844014,1.4436143004659052
4880,0.48979872806126123,1.3933801047613992
368,0.13183450519493234,1.1751923843276646
1786,0.9882218516260306,1.1606870670707425
2772,0.6600116796230435,1.7041815150727933
5099,0.43941117843710964,1.4946656287005202
2765,0.2991818179835279,1.6573676214704813
4825,0.5539766033333103,1.5937484573314444
968,0.25795647999155835,1.7068957905789526
3734,0.9774790725723957,1.787709253977276
379,0.1864907863152658,0.9293174812802562
2701,0.11861648528053728,1.0472883806316349
1126,1.2473728650251457,1.9005939908278664
3106,0.3984138253971352,1.1904115088888745
3666,0.9337080412588824,2.209892411935347
1509,0.6371064899268054,1.8671336247538397
3877,1.1709761827794383,1.997496086410063
4548,0.8094788981611044,1.3742355695993005
4528,0.6250325425592257,1.3589005952273472
5033,0.35483711808766066,0.44861278312730746
4226,0.7666600906222806,2.1219742633404755
4848,0.909235277476089,0.8388257782888411
3129,0.8356018132494871,2.148198830243715
3958,0.8976804331511363,1.1813819310285045
4079,0.9581172130092332,2.159778691151826
3190,0.7777093647678439,2.2519995424771055
4736,0.1881639516971587,0.0
3533,0.11866451333184609,1.8572943984431647
3591,0.8295753822012077,1.927960603615198
3285,0.11600574750540422,1.3548446163304817
4441,0.19670421608505564,0.3520281457460971
3066,0.39561447879286044,1.4710977795050941
4325,1.1462171811126194,2.1952822266118632
5035,0.5151793449026453,0.44861278312730746
5006,0.31629007931413905,0.5588375729816768
5001,0.20384108785527907,0.5599371962563873
4692,0.21323361458917092,1.4182105252867196
3361,0.7453713091502912,0.0
4991,0.14855234160262776,0.5747146312715693
4138,0.13510187684711764,0.32182911856194246
2755,0.5052880626160217,1.77205292669503
4670,1.5973430003536133,2.4380480099395023
5156,0.599123559132078,1.0248066525951018
4034,1.3895801180347929,1.678026408326754
2960,0.21462616853834166,0.5127895150863193
3681,1.0205437614067199,2.1141477919565115
515,1.139223927482029,1.571204326843458
4675,1.3397761688729697,2.291782061056014
5038,0.21174720368943536,0.828272048745605
3498,0.7048632786012266,1.2228314958538913
2228,0.38090191825153646,1.0496195451942991
3139,1.205102519030088,2.0246763962939283
2215,0.7170121475285898,0.8042441162036539
4476,0.16240325104874756,1.273741850726271
4818,0.5200753256789229,1.4850161029886504
2934,0.26753887515296076,1.2537864665293863
4180,0.308340359659228,1.8209825993902122
4360,0.9474037282144125,1.7925290130402425
4227,0.9697456810208251,2.1219742633404755
4556,0.5249287327218726,0.7953241980970988
4387,1.3368289745899224,1.781735959014512
4220,0.3317101743679621,1.4898152590004916
540,1.1232454134443426,1.9825042227336014
4665,1.31138712683743,2.6242819156924972
4796,1.4256961092481752,1.8954628020474842
2840,0.8510526049326246,1.583058187791276
3970,1.0925627069493502,1.683697105140862
2896,1.0765005099706055,1.9706701193991252
2771,0.7476887284044158,1.7041815150727933
3113,0.7738883099968124,1.4216578127919113
2927,0.9100315103865803,1.5960409463024843
2786,0.3529179464200686,1.9512144721959024
4123,0.26964285985135134,0.47148202166449477
3743,1.069923716685062,1.5970588445849825
3952,0.8259952674873932,1.577444382883676
3795,0.35026084429924,0.7123331516450686
2818,0.36129961316769904,0.536885048065722
4971,0.8839406802566884,1.6833522389736308
4523,0.5598760874592515,1.0965730859322254
5121,1.3236461818739438,2.4799687962183468
516,1.235616328045529,1.571204326843458
3998,1.0597181620869751,1.8700962702116308
4783,0.9287675062389749,1.6030193718726236
4052,0.9715974906347259,1.714070557666341
4846,0.5879292689441769,0.8639652626894511
4536,0.4577549598875461,1.622535135993155
4961,1.3195043535681554,2.0369575376955193
2951,0.2446867766330854,0.4956468158061847
3912,1.1565344299238551,2.2917465306129423
3630,0.36973016362155464,1.4782142303247654
3737,1.0619884881071833,1.8997415158250863
3672,1.1740827630259096,2.261721351954417
4414,0.19155325525844127,0.49363044170953824
3813,0.5151688714543532,1.18409970375397
3846,0.16941132762433309,1.7196341382305425
3247,0.21053457150777605,0.4112527057821853
4936,1.2913060719697182,1.7499142973046806
3268,0.157114943730806,0.3586711919650789
4299,0.8541907324486656,2.1551179340802435
3095,0.4725815173875384,0.7246829451495133
4948,1.0427151150094083,1.6790269768056483
4254,0.8360231801676495,1.0632339672377418
3785,0.4091273721307136,1.6258054125234271
4729,0.23062385102255079,0.41560358066664455
4091,0.16785320355112834,1.4601808618600554
4097,0.12165899035529974,0.8171736268921878
1747,0.17297230912211,0.8372115115996787
3105,0.3947626316579691,1.0644150710252938
4724,0.28419153246292067,0.7337884062976694
2974,0.15450285431555716,0.31156464337520073
511,0.9404008408634039,1.571204326843458
4915,1.2147532208660865,2.245689595642072
4785,1.0840363259463228,1.8402249284159289
3942,1.0303754878441018,1.5188697315474513
5175,0.7254862626112957,1.7369384922027329
3334,0.7005279446071374,1.4232565877388974
4572,0.4597150614471152,1.0913847042298503
2696,0.41198474720890516,0.44833913317619767
3107,0.49157575713354823,1.2636637381989841
3509,0.18962196061756856,1.4293198741808302
4349,0.8562915336443742,1.4997699421553443
3342,0.4200903643177826,1.3488975519413557
3262,0.1599357510025897,0.4417065648440901
3151,1.238618871906467,1.8355313378189404
3299,0.22570285735422585,1.2704247525356465
3598,0.8085573421405478,1.7629399123977378
1081,0.7690050618005777,2.0483832803098436
4539,1.2754284928834665,1.8651479001954099
2618,1.2648049261933982,2.268732484854919
4569,0.3593309452453179,0.9607806839462304
3724,1.3188685302683119,1.9089408064901918
3617,0.46169123790817607,1.154174298042961
3578,1.098512079199982,1.9480338984253573
3514,0.25054311201883345,0.8314505018161181
5053,0.2586140226969506,1.0174330068909987
4540,1.3214788231604135,1.8651479001954099
2997,0.1161632790599385,1.3601804803484103
3888,0.9509371746203694,1.5961378970842908
4694,0.16165699178955173,1.4182105252867196
4793,0.8463244372809459,1.9829753874334148
4555,0.43284206195162483,0.8640792446695544
5129,1.3371125345815058,1.3290237219904362
4126,0.20023752138978282,0.46744027849143793
977,0.9124394225719162,1.891549477298135
4358,1.0024182055304685,1.640506803814478
4993,0.17063580656238214,0.5599371962563873
4439,0.12328135844729243,0.32330213833362126
3302,0.293815607642138,1.6619687345473446
4137,0.15450285431555716,0.29571730312024597
4345,1.145163905241567,1.492952973541078
4659,1.0325468024097695,1.8771071766469962
3132,0.8587998916876951,2.3123798544366205
5174,0.929672046821181,1.7369384922027329
4078,0.8797539709414556,2.1353912220247424
4896,1.2809750721873574,2.207143522687573
4871,0.48718540938143756,0.8519125933126016
4870,0.3288004371668438,0.7815774234064884
3255,0.3515507052130243,0.6402102399911049
4018,0.9619454018638949,2.2492932631389344
3360,0.8223364446321842,0.0
2828,0.36871783597054564,0.8013365882823895
3927,1.0045206294467808,1.7950575975509988
2932,0.2295052357201865,1.3256999271583503
973,0.535663855400943,1.7230651068322347
5147,0.4052222088600881,0.7684621585724001
4653,0.7725120004926858,1.658814753565746
2787,0.3378024977468519,2.1262289810193438
3354,0.41841598951848924,0.0
3790,0.3021154405589538,1.345621040630829
3869,1.1688028865047142,2.2684297883715665
3108,0.614951767614696,1.3610440953739826
3668,0.8828548807306078,2.261721351954417
2781,0.789126714990226,1.6156814812447988
4038,0.9973096427453985,1.5008921771994144
3253,0.2577211041781753,0.8112331406719325
1073,0.8807725719879234,1.5490703710153853
4664,1.1048911514720507,2.612672162198115
3029,0.9181553991582684,1.6964230900215267
3748,0.7541854073135033,1.8593061151182917
4666,1.1744112967237506,2.6242819156924972
3218,1.1091287672774333,1.6984613637440922
2721,0.2937271499873108,1.0374304158754601
4127,0.35961444009863064,0.46744027849143793
4952,1.0597181620869751,2.1513007373900224
4656,1.1717727334564954,1.8771071766469962
3789,0.2837407123181245,1.355415497171802
4451,0.4214505792699049,0.4803336728121373
4251,0.519207407864901,1.2712516648768233
4549,0.8240819813440716,1.1948086332404455
4637,1.2201259224945074,1.6908832488534726
3388,0.43483478583181984,0.8459100399347699
4713,0.24390733392622324,0.5699628441142103
1783,0.6027129156852608,1.3528499810315666
4307,1.0600036812035762,1.6894553343682222
3339,0.5167514354078677,1.493937950143496
3749,0.8633127514025631,1.8593061151182917
4399,0.1367324015564325,1.2785603851074423
4683,0.9610310455283745,1.7727462290558833
3851,0.25219442658985214,1.6918530852415732
2222,0.4448636557046994,0.8042441162036539
4341,0.8493672656914101,1.5987790376753899
2808,0.40246692159444714,0.600892389051017
4847,0.5706057582576005,0.8547670473830277
2827,0.3551913345146172,0.7405968387731685
3567,0.835005430369284,1.7944039029099994
4950,1.2668402811701547,1.6790269768056483
4506,0.8050346148769694,1.6035423582434876
4891,0.8221093048057027,1.855729228757615
5012,0.28227241277012727,0.5541355032504102
688,0.4882028638525614,1.6626950664694815
4671,1.3901703526795286,2.4380480099395023
4244,0.7077195538998023,1.2238621820248747
522,1.467367063723566,2.530561166472211
5000,0.15803971289171362,0.5490494044190448
3288,0.11204192500392597,1.3548446163304817
4830,0.9097058090988159,1.9170082257857846
3377,0.3016743387813141,0.7921627728772053
4206,0.4600237902071273,1.5953124905035223
4732,0.16679115680299061,0.3021100940254768
4865,0.4034402509638786,0.5411655124172396
2227,0.45429431751665866,0.9207808935898364
514,1.0764659344625387,1.571204326843458
4979,1.058985535712313,1.6414184309386322
5122,1.3118601519554438,2.4246987708644525
4972,0.9130096959105239,1.805279735123495
2980,0.14080644208785223,0.4180381173033907
4265,0.31380442868992325,0.9726240158530645
5157,0.5851554588374449,1.0898614448944361
3580,1.0319418557526832,1.8707133777659795
5060,0.14178222967182902,1.5056980294232707
3558,0.8562359237673459,1.2949337056224066
3119,1.0009552241631052,1.5041975365485918
4025,0.8702421092926681,2.221319224335392
2994,0.12011216093353476,1.3335016185612345
3878,1.0351766300554253,1.9567131853211877
3348,0.3986394217176266,1.3803270818204103
3910,0.9701659930760288,1.997746917634851
3719,0.8500420767166849,2.0677733479818294
3967,0.9126833110459249,1.5461715691463311
4092,0.1623942077848253,1.4601808618600554
4179,0.28508340945353694,1.895035678026799
979,0.9976535708071782,1.891549477298135
4705,0.43916938724780463,0.4911502658768139
4203,0.8428810633611173,1.5953124905035223
4623,0.8003498782130997,1.67472602548381
4359,0.8003498782130997,1.640506803814478
4211,0.6952958260600626,1.5656161609821924
4469,0.19668459330179267,1.2071211084164708
2822,0.31455966088819315,0.5829159501790613
2819,0.27443616607553384,0.536885048065722
4364,0.7153718228638554,2.011711746697218
2924,1.3071637902379447,1.5960409463024843
4444,0.2149585082569062,0.3520281457460971
4164,0.12710417056514428,1.3017269200678527
2758,1.467844562692916,1.6573676214704813
4156,0.15331912764348912,1.2266726741691865
978,1.106148565686144,1.891549477298135
3972,1.4065259467477195e-15,2.0549210731270473
4292,0.8922773378360923,1.9922345658828036
2810,0.40867557185962816,0.577682816659931
1508,0.6990748682950232,1.6053296574802467
4631,1.1197888105218834,1.8416717935755964
3215,1.0564251142772374,1.6984613637440922
4309,1.2225286192431677,1.6894553343682222
4065,0.831188685420858,1.7128529582296723
3155,1.142402335760921,1.891556800291914
4201,1.115727581468916,1.7807611550328497
3803,0.3292866104300269,0.6457357510319582
4647,0.6187030854736775,1.6798958213480617
2856,1.0821583891647308,1.9019250294099428
4421,0.3053512968148014,0.3834360121353916
3313,0.6230194594531787,1.5023098547823281
2794,1.179755360260239,1.8845891606111658
3022,1.1188216588280742,1.2199423046571685
2981,0.1712345844993377,0.5117018386946353
4988,0.0873214918429129,1.1750306016859535
4571,0.3537503799943882,1.0431675766354613
5116,0.8008319614979589,1.9492051439770515
3228,0.1867444568187794,0.6467506668391492
4894,0.8960198207131662,1.855729228757615
3362,1.1326312184721141,0.0
4788,0.8676310834026608,1.9829753874334148
2692,0.20126522210623715,0.3972572729570193
3891,1.3676890472658367,1.6617207036215615
3680,1.5166762957064965,2.1141477919565115
4104,0.35231755091982464,0.5241648591321759
5161,0.6386955241033312,1.1195917156162674
4191,0.795836123529462,1.6716615017961092
3378,0.34281696183488153,0.7921627728772053
3932,1.0755296343678662,1.6576542662114566
4453,0.5578820577529822,0.4803336728121373
510,0.9077652481959502,1.571204326843458
3102,0.5495297622161315,0.8328082753296593
934,0.20609978679298413,0.38456684517733586
3585,0.8356018132494871,1.8707133777659795
4072,1.2336673015943633,2.043381958680198
4438,0.11742796290975095,0.32330213833362126
3856,0.8468873390655254,1.9433820469886751
733,0.3821258626600098,1.8306572008861888
4085,0.8683591810654588,1.7769325211278595
1533,1.0056111143114048,2.1530384130464038
4834,1.0898311835225494,1.9276550813990008
3706,1.1437207103327778,1.9994442514629052
2476,0.5847760022322799,1.5621178467555676
4209,0.7730965228033728,1.5656161609821924
4721,0.26724687787707785,0.8914330345471566
1781,0.49102684941307,0.9400570025162525
4497,1.122605210621102,1.7572373547307518
3321,0.7675689746833116,1.3315158976101051
5149,0.38161358991127914,0.9057525638626475
3909,0.978431069927585,1.9994782450863584
5113,0.7574471453491067,1.7477947616953462
3993,1.1241618127794495,1.964354421584209
2905,1.4793756885362497,1.9612328011803657
3089,0.505777240015005,0.6232257922885226
4308,1.1522326523107884,1.6894553343682222
4959,1.2747909848515049,2.2153884322750637
5168,0.7075756427800317,1.4433258514837293
3335,0.6219012408788879,1.4232565877388974
2889,0.9669163467431945,2.0580099371014753
1085,0.7476887284044161,2.0533243103030188
3723,1.2886592111609485,2.0477512438965966
2229,0.3794180734705556,1.1592225576958504
4218,0.4267098402557779,1.3792137973323317
3146,1.0949825144363277,2.132539982331647
3757,0.95502635204114,2.2925668559597123
3865,0.9558920920216087,2.1788132532092996
5105,0.6878509432139583,1.5007683245931123
4963,1.0314388656647009,2.0369575376955193
3929,0.9100315103865803,1.7950575975509988
3974,1.0229708192341311,1.8390949302521462
3769,1.2043751699246579,1.8486141093232564
2854,0.8042871106941801,1.9019250294099428
2869,1.2402440461381212,2.0186690040623483
3930,0.9349217582577488,1.670273737061446
5130,0.9957735568847571,1.1743881455313276
2895,0.7473959846716524,1.9706701193991252
3996,1.2510513080382841,1.964354421584209
3531,0.266410407935185,1.5475032011845877
694,0.7157648241883019,1.6661573974778339
3934,1.0266248056549727,1.3893713305339803
3807,0.2463777236346073,0.7410027961330072
4336,0.746024088957386,1.3195102984905858
5164,0.5739281024288554,1.361620508734479
2806,0.5057470535408379,0.6212269742361038
4284,0.7272660065961087,1.6806500650606733
3336,0.5418040471301222,1.4232565877388974
4102,0.08465746186293732,0.5470033563769937
4271,0.38177895236215625,1.068243160842961
4663,1.190813742064341,2.5125403328772173
3624,0.5096980060263112,1.3388135905115361
4213,0.38969502666772937,1.5656161609821924
2779,0.6366299485204854,1.6156814812447988
4519,0.7459473237219035,1.2691159470365723
3690,1.0613123732006915,2.036739305108821
3159,0.4596086290879403,1.9186364574339094
4253,0.7285479463306858,1.0941299754267289
4108,0.25499376336768065,0.510668717780356
5172,1.0917576783170517,1.7369384922027329
4369,0.8202236825372975,1.9563876141448862
3898,0.9682458365518541,1.6617207036215615
4765,0.28433094607966264,1.065015353425261
2799,1.3513482153887129,1.2794822865344002
2235,0.5709269826836582,1.471965366173355
3320,0.5700714262583917,1.3315158976101051
4742,0.18645182940461197,0.0
3205,1.2822242282879166,2.3518875937221213
4652,1.1195830136440859,1.658814753565746
3499,0.6842431191546722,1.2228314958538913
5093,0.5530692735388172,1.3728209736701646
3735,1.3579304492680595,1.886862838941802
4314,0.8390637046888361,1.8691759169818023
4133,0.2016916438176794,0.28600127347112625
5159,0.535886258410024,1.1195917156162674
3553,0.884452144633151,1.2489329322758775
4511,0.5118678868853311,1.5579357156692046
2715,0.2148237139123293,0.9595640600330066
3607,0.5083384902249446,1.506930489155067
5169,0.6389881227790178,1.4433258514837293
1778,0.40245653581322766,0.7330735182611395
1086,0.6023494777563104,2.0533243103030188
4895,0.9647529295566579,2.207143522687573
3156,1.1923734580747503,1.891556800291914
4417,0.152118441272023,0.49363044170953824
4140,0.17050785935613536,0.3613123416545742
3395,0.48718540938143756,1.0145828482094945
4242,1.0493496483484974,1.2238621820248747
3643,0.8386977796921264,2.336349799299661
4545,0.9103433824928022,1.6147003303897367
3110,0.448902771368613,1.3858228443371425
3919,0.7570431204114842,1.738116944799408
3088,0.4596893051028927,0.6232257922885226
3006,0.3020852744734674,1.0147510133395827
4256,0.6928270559763322,0.930507382467841
3733,0.876233154975162,1.7490645558487934
4770,0.22834577478755935,1.5388432257750058
4238,1.4196844283040482,1.3067018785978046
3275,0.35483711808766066,0.4059952755968698
4503,0.7069171514873372,1.766998721752968
4879,0.43109923532886074,1.3933801047613992
5086,0.7713108485711764,1.3976533626341887
2804,0.9098607359578722,0.6212269742361038
2695,0.3099995431273366,0.44833913317619767
3251,0.2710420613175022,0.7755388848349862
2735,0.2991818179835279,2.0178095700841934
4810,1.1261737423837566,1.7376554956719488
4230,1.0209090623666681,1.663487680414767
3192,1.0774098669190775,2.2519995424771055
3751,0.9436580874723103,1.8593061151182917
3948,1.2290366012295566,1.6984765914142856
3256,0.3227636795563431,0.4768872904094406
3640,0.6248531317803263,2.0197718845857033
3098,0.3755141512839066,0.7246829451495133
3979,0.9739395762368016,1.8390949302521462
2823,0.23963441882176173,0.5853214771899953
4850,0.5495514513215806,0.7807091496076836
4119,0.3088265144495887,0.4492012143389907
3534,0.16853441872262848,1.9125042548285518
4688,1.207229486650707,1.5744991174869984
2798,1.3865287045154577,1.32344444529459
3887,0.750872623246345,1.4746019815840943
3239,0.10587664877717114,0.37962432916318445
5007,0.2700180202185363,0.5588375729816768
2907,0.8772040830132547,2.0131568372339115
2989,0.24543515043112069,0.7938947521990515
2983,0.2793682376756441,0.6911963611607982
3094,0.36777596962403186,0.7246829451495133
3492,1.1512688022222075,1.3456581240574925
4746,0.5208330921914411,0.0
4397,0.11180031291383999,1.4144646959035356
4474,0.31235277654328547,1.1628313283435425
5075,0.7557428002105925,1.3220918264956152
2763,0.5482339524294442,1.6573676214704813
4838,1.4196844283040482,1.4284546699632974
4423,0.2729257816590755,0.3834360121353916
2700,0.17925002921916328,0.8240654008621553
3363,1.1698981207507755,0.0
3641,0.8906445814261306,2.1574954150429138
4465,0.1061794536384472,1.3234575917442308
3294,0.1952289337884219,1.0548937915479017
4348,1.0517179907382614,1.5987790376753899
4893,0.922801917945456,1.855729228757615
2749,1.0713649695935747,1.4102094271542727
3172,0.6825061967504589,1.739171481441877
3831,1.3579414864228954,0.7228807174317406
3385,0.3280526715352923,0.8459100399347699
4501,0.6379246780266596,1.7572373547307518
4622,0.8008877845177292,1.67472602548381
2921,1.0149838178368489,1.8016115039742362
4020,1.6420663037928753,2.2229289562349437
3584,0.9393974931239849,1.8707133777659795
3916,0.7848978522090038,1.738116944799408
2711,0.17791162172094072,1.1477157855324098
1425,0.744890620737781,2.154140110901784
4009,1.1652028614193612,2.3504462981599694
3854,0.41508686968322356,1.7621393602341937
2839,0.7690050618005777,1.583058187791276
3587,0.864146508717084,1.927960603615198
5039,0.16057477201645484,1.152341674715277
969,0.24631559354347385,1.7068957905789526
3150,1.152101851971294,1.8355313378189404
4969,0.9344412938037503,1.6326156750999594
4093,0.1375163270263293,1.4332000534673928
4332,1.1420155758849784,1.3195102984905858
3293,0.16093224284101956,1.0548937915479017
4197,1.1005540622732997,1.959635938109004
4833,0.9307071911732386,1.9403270679756646
3922,0.8234870998095647,1.6576542662114566
3080,0.708227608092472,1.2315188795861465
1790,1.7064044003771248,1.0075272266312298
4068,0.944487884903669,1.7128529582296723
4924,0.7731651157081258,1.9496652578962308
2754,0.45055299130190624,1.77205292669503
683,0.2693372721792777,1.6637074775562186
3213,0.7136564326788254,1.6984613637440922
4853,0.6331202104175664,0.7662704460885534
2719,0.22157435251543844,0.9595640600330066
3310,0.5933595374687102,1.9233889480595388
725,0.7428218306431463,1.4362296186227723
3085,0.7706200937511907,1.0037670626850708
727,0.5096447687860289,1.4362296186227723
3501,0.6267000504699752,1.56870568439817
4755,0.14407919696342814,1.4539347656692703
4764,0.2344636704107055,1.065015353425261
2717,0.30151276070751426,0.9595640600330066
4252,0.48198779560626065,1.2712516648768233
5069,0.6963154887377168,1.469890737146573
4563,0.38121096879721716,0.7485001649604799
2936,0.23024291708733768,0.7078929087019602
4797,1.8070158058105028,1.8206947450346587
3710,1.2120988865344462,1.983131059451817
3038,0.8024969376238142,1.5911428458551389
2886,0.9862161938797062,2.2803698642956527
2941,0.22472882199007863,0.5064924458953325
5119,1.2448654082194415,2.411769794053682
3346,0.5489203784359791,1.3445525813766313
3246,0.13234245941086353,0.37962432916318445
4094,0.14975090146059017,1.3300307607122244
3657,0.7690493858592373,1.5171142186269686
3077,1.4150101872159793,1.2960686566716686
3163,1.0353287899158015,1.7794191147596297
3237,0.2063690182827231,0.5222659895074974
3632,0.5702343836357109,1.6906420068574755
3540,0.5681600628637278,2.1847005906657677
3374,0.4514598853572147,0.7683321628199655
3879,0.9517750569099788,1.9567131853211877
3610,0.9213969952865172,1.3065405169383508
2216,0.45716755793736213,0.8042441162036539
3111,0.4731957693673197,1.4216578127919113
4373,0.907347422332766,2.011711746697218
4869,0.3104506393006696,0.7814307904252324
5097,0.5031213420924702,1.4369685328625985
3618,0.457344982781554,1.1603353202553965
4943,0.9289713866206801,1.6188319777592612
4357,1.088180608274298,1.640506803814478
4697,0.16291692176556444,1.3066803540338445
5102,0.5850282569686961,1.5696983994549536
4385,1.1919589384240974,2.2286847103146283
3874,1.042353247440288,2.165339538808919
4973,1.1172554336511822,1.805279735123495
4077,0.8288441253193138,2.1353912220247424
975,0.7424151683558746,1.6923944397699437
2616,0.7406027775805056,2.4527193689503983
5073,0.936624138081871,1.3220918264956152
5046,0.10167229009027628,1.3269851789290206
2903,1.3597463915387573,2.177194400921668
4056,1.2476467470947235,1.8495602812273804
3903,0.7347099055674418,1.7823486558510226
3260,0.2002144691030722,0.4768872904094406
5142,0.4624326494336789,0.7551899326029444
4804,1.2014291553007936,1.8206947450346587
3073,0.6258141875708759,1.4302771092257667
4096,0.152748122899432,0.8171736268921878
5133,0.9893224926890153,0.856880065881182
4782,0.8465531987233554,1.5945674696441707
5010,0.34281696183488153,0.5588375729816768
3168,1.3744611976676822,1.6346301400953458
2873,0.9402045318892581,1.8092352108950795
4933,1.5935001116286576,1.864798625271274
3524,0.3666060589321368,0.9772555239748623
1428,1.3502111171312283,2.4572507421054355
3725,1.257402253786734,1.7490645558487934
3563,0.9782782717129054,1.7914713585492887
3210,1.3049491258929615,2.1748151967708154
4712,0.19634495070663266,0.49580001195783074
2898,1.4207114936052838,1.6649997310771187
3999,0.8648987615915225,1.964354421584209
4261,0.7318302195732964,0.930507382467841
3234,0.23861980693403903,0.5222659895074974
3992,1.3540974811372457,1.964354421584209
3800,0.4680933897272159,0.6457357510319582
4759,0.1464329596938818,1.4075596161744424
3315,0.9078695567649144,1.3970835371393957
2843,0.5138078257334361,1.573790645134473
2753,0.4596208772330723,1.6652575887502428
3649,1.56679487472254,2.178342059973028
3594,1.124228433059038,2.2694154295836473
4576,0.5553694539332025,1.4282933822357733
2740,0.7533204703584858,2.226960353892639
4152,0.3899061043510493,0.6801779452130152
4287,0.8847743155109332,1.6806500650606733
3300,0.24327225530516555,1.4522133793736816
1782,0.5980413080959729,1.0516869221348992
3250,0.2678073695797666,0.6349967975018004
3490,0.8106052230437434,1.7795596092062316
729,0.5687595388530884,1.732332930974112
4965,1.034568755787906,2.0369575376955193
4860,0.47552931067921117,0.5411655124172396
2791,1.170824045177434,2.0141924902652297
3918,0.8861144974194064,1.738116944799408
4377,0.7254862626112957,2.361770735271853
3656,1.2478870785920744,1.5171142186269686
4312,0.9174447323441339,1.6894553343682222
4508,0.9699042326269824,1.5579357156692046
4551,0.7811956123144549,1.0424989108563143
4192,0.7794341134708009,1.6518055791701785
4207,0.7007674572089609,1.5953124905035223
3054,0.468491033141877,1.3840678268576296
3556,0.9379687580815792,1.2489329322758775
5135,0.9498015671303177,0.856880065881182
3729,1.2210098130341738,1.6028698481287142
4450,0.29786458269597516,0.38013456411861135
5178,1.1478099210294839,1.7258697952329367
4240,1.1441092509330895,1.3067018785978046
3283,0.10502369645400897,1.3077272630114765
3338,0.4010239002498908,1.4232565877388974
4679,0.9096359225800337,2.3394324073623114
4003,0.8204687059297051,2.1368298951676543
4302,0.9451952767290852,2.139770574822266
4370,0.7578144580665619,1.9563876141448862
974,0.6066937379060967,1.7230651068322347
3908,0.8785544079816967,1.9994782450863584
3153,0.9592126025861913,1.8355313378189404
4407,0.0916416051406362,0.48846835666076904
2904,1.4793756885362495,2.067096635284671
4166,0.207270125996531,1.1332020609989188
3312,0.6827587448385875,1.5023098547823281
2237,0.5802942151294129,1.6376204882724656
3541,1.1859290808912237,2.1290580577957403
2741,0.9072237499324803,2.476650125964429
2805,0.5718465879731282,0.6212269742361038
2849,0.9934562434591854,2.1690764967309657
2962,0.26576279214321824,0.5127895150863193
4786,1.0834960730328604,1.947040081090297
4693,0.1917406051797945,1.4182105252867196
2752,0.7794341134708009,1.6547945589074995
4044,0.6000326341482322,1.5008921771994144
4491,0.8525771168488891,1.8337560976238056
3608,0.9970396877453003,1.4284599089513041
5100,0.3658582172248271,1.5007683245931123
4776,0.49981314609920097,1.6407220172800328
3683,1.1524099489736421,2.0999328404182522
3717,1.1337323329236282,2.0677733479818294
4960,1.2701737431817488,2.0369575376955193
1072,0.7761409084626373,1.466960965085705
5013,0.26333735809021463,0.5513182837549021
3568,0.9806452706607247,2.0270562019609994
3940,1.0735148272582145,1.3893713305339803
2775,0.6906745658930786,1.472221605812425
4147,0.31707393234724723,0.6670268372183017
4634,1.0769249342011789,1.776410468661375
5054,0.27967760212722775,1.0174330068909987
5074,0.6757471985855413,1.3220918264956152
2877,0.6686143658325178,1.8138113561719844
2817,0.3880440076596645,0.536885048065722
4286,0.8817911555063199,1.6806500650606733
512,1.0917275358003358,1.571204326843458
3659,1.0136081817416869,1.739342104799162
2984,0.3400323547875715,0.7938947521990515
3775,1.004263151719594,1.7027701794598673
4772,0.27801181666377806,1.58989264966197
4435,0.2602625211816199,0.43371259207739005
4176,0.3107977580532119,1.6050474490622468
3559,0.9126833110459249,1.2949337056224066
2745,0.8452915339203854,1.4102094271542727
5017,0.34439048291915303,0.3819462520556361
5094,0.5773495659987988,1.3728209736701646
4677,1.1522759897629842,2.291782061056014
3165,1.0124308846252728,1.9186364574339094
5141,0.535738308916504,0.7551899326029444
4553,0.8496626095613109,0.8640792446695544
3937,0.9449602421775769,1.3893713305339803
3720,1.130815508771624,2.0677733479818294
2900,0.9337285527281616,1.6649997310771187
1580,0.5525314100895096,1.6894149781450432
3953,0.8014258926069515,1.5405193459106707
3072,0.4860857662116404,1.4302771092257667
3703,0.9030280760720911,2.264784247308223
4457,0.1501380262068552,1.021765302071742
4275,0.40914578405335816,1.2019358596127627
3216,0.8955720343218431,1.6984613637440922
3845,0.1805431966320684,1.6879033923978395
3130,0.7631907313683245,2.1556925867167114
3730,1.3398283954093626,1.6028698481287142
3562,0.7166341906372415,1.7904238450178187
2912,1.468211046006711,1.8564545554682421
3727,0.9030280760720911,1.6028698481287142
4129,0.31164743381542453,0.32182911856194246
3529,0.24584899432848925,1.0121443353363475
3746,0.9642870016813408,1.5970588445849825
4753,0.12012408621794884,1.2905016725412457
3614,0.7742224542577492,1.1850741281621004
3000,0.12710417056514428,1.2718914934950796
3389,0.4310777517240305,0.8459100399347699
3988,0.8424033678566171,2.348154925492778
5082,0.6561442596727209,1.3669103460168621
4243,1.2705226000429495,1.2238621820248747
3037,0.6766745959474673,1.5911428458551389
4747,0.5151793449026453,0.0
3708,1.0233940409176823,1.9994442514629052
3555,1.067739795644778,1.2489329322758775
3398,0.47037776066604325,1.1301933339645456
2956,0.19272497149585602,0.4535085913858223
2762,0.47572508604325675,1.77205292669503
3118,0.8739831638229516,1.4960269677755653
3945,0.7583118563116344,2.0892937589616847
4852,0.34107851671043576,0.7662704460885534
4223,0.5594784211749392,1.4898152590004916
4658,1.292136042368015,1.8771071766469962
3371,1.0235787012590343,0.7192348461064266
3522,0.17536632978177616,0.6331967796205922
4897,1.1508341619204563,1.855729228757615
3623,0.5938931559025339,1.3315776568234419
2882,1.0048321831593612,2.089426054578108
2766,0.5681600628637278,1.6573676214704813
685,0.10167229009027628,1.7336364009605338
2887,1.1437608506356602,2.1707484363873646
3272,0.17562796962654095,0.37893771972613777
3372,0.9153698933254134,0.7192348461064266
3269,0.17957055644605988,0.3586711919650789
1080,0.6690255675416493,2.0483832803098436
4492,0.7267518524153632,1.7613711261653429
3208,1.3009240110588776,2.1748151967708154
3176,0.5323286388103144,2.0024850244957664
4319,0.9217637394271732,2.2342407399586457
4076,1.1904713747142923,2.1353912220247424
4999,0.21560224130952418,0.5599371962563873
4889,1.06450760440944,1.855729228757615
4401,0.14596963298674215,0.6691970357971302
3824,1.07933595983819,1.8876522246527698
4239,1.1365355542746094,1.3067018785978046
2884,0.8864778633158896,2.2803698642956527
4483,0.32125348957743644,1.9561466551613467
3206,1.1680284442396343,2.3117853547598393
4437,0.1917557162397799,0.366076460032525
3760,1.1911593896927557,2.2925668559597123
3832,1.1149812755751378,0.7228807174317406
3242,0.17217149582437705,0.37962432916318445
3698,1.2022279093261121,2.2224569114449544
4460,0.12098757293764062,1.305814607407269
4267,0.48366789290416706,1.0385355370894642
3355,0.38150409982465516,0.0
4190,0.8461642915848091,1.6716615017961092
525,1.5226253430699626,2.389450133800057
4947,0.4596086290879403,1.6188319777592612
4374,1.1305496861054345,2.034638654388968
3071,0.4909959634984604,1.4711664343472697
3571,1.3872123821426288,2.0270562019609994
2945,0.2331503810239827,0.568692437067273
3144,0.5070658999666153,2.0246763962939283
1746,0.19857281496711718,0.8372115115996787
3700,1.5680424921922795,2.2224569114449544
2795,1.6310252434734926,1.8805421301220573
2923,0.8592226174146766,1.5960409463024843
4740,0.19485789770998205,0.0
5138,0.40574657899924016,0.7965925023356318
3187,1.2702796138780337,1.8269448933581331
532,1.3069807012145083,1.541460364813322
4477,0.22157435251543844,1.273741850726271
4264,0.4285088061761034,0.9516512749684207
4443,0.19125839166968164,0.3520281457460971
2988,0.38233423447152703,0.7938947521990515
4151,0.6327728305774826,0.6801779452130152
4391,0.8500420767166849,1.4919481759679392
4521,0.785517811874486,1.2018419830375147
5077,0.788362064573104,1.3220918264956152
4558,0.44855901539070425,0.7503933157449206
4981,0.8456275856059992,1.6414184309386322
5087,0.744183976526362,1.383135998707064
4224,0.58566487949197,1.947124749468345
4262,0.39730938854764775,0.930507382467841
2975,0.13510187684711764,0.3361578959260503
5057,0.2325575530004181,1.326610722422668
3365,1.0114153336778564,0.0
3121,1.1810121979127615,1.5041975365485918
3602,1.1860741364686511,1.8160302265151806
3366,0.9436233234424226,0.0
4809,1.3609368024903394,1.7376554956719488
2930,0.19002544386898568,1.3256999271583503
5120,1.2640011163091367,2.411769794053682
4361,1.0890519580552196,1.810834574022286
3064,0.5068610513220663,1.399487355663845
4035,1.047910730816262,1.5740637040184176
970,0.269034779662298,1.7230651068322347
4995,0.16231663889456135,0.5599371962563873
4761,0.15936360952339412,1.065015353425261
4470,0.2524167075376747,1.1628313283435425
4784,0.8958399429012358,1.6407220172800328
3281,0.1501380262068552,1.0478163086807073
1583,0.6709081802539311,1.8492839082091215
2617,0.6244241733782785,2.4527193689503983
4288,0.9641546130009769,1.9922345658828036
3211,1.0664364147640748,1.7960341571524079
5003,0.31697461143636785,0.5710879195408355
4290,0.8125569908571787,1.9922345658828036
1419,0.7979661845474001,2.1358780530941797
2706,0.13660340402829033,1.332113597643983
2751,0.795836123529462,1.4102094271542727
3502,0.5560191380629642,1.605638941999488
5179,1.1448384518247854,1.5961042191264887
2691,0.15714465644277836,0.3900216254450201
4141,0.16822079053670214,0.3920567291327945
4839,1.306452289522682,1.4284546699632974
4660,0.8857164273734959,1.8771071766469962
3593,0.7990213078102509,2.3328352475656966
2212,0.6546031940127272,1.12768916500295
539,0.9709832153866308,2.1060895158832573
5112,0.6997489753371836,1.746297216676319
4625,1.0640501678167134,1.7160898776027664
4669,1.6976683820099647,2.5859106961337748
3564,1.0516346970709947,1.7914713585492887
5137,0.43284206195162483,0.817012603265153
2614,1.1462744627785368,2.4527193689503983
3214,0.6881147575965866,1.6984613637440922
3794,0.38878094341846214,0.7231070503850072
3788,0.18560807615887853,1.3899827011849375
3670,0.8567058140158462,2.1604963961950663
4268,0.4418874989465386,1.0539909455627778
5085,0.9402598447345006,1.3976533626341887
4883,0.7038264108210294,1.4830319735507969
2469,0.4570614967515696,1.3010291639017992
3786,0.16785320355112834,1.5099556813419435
5080,0.9327114398411489,1.3669103460168621
4667,1.1524099489736421,2.6857242513144057
3023,1.1240761327326154,1.2199423046571685
3595,0.8202236825372975,2.2694154295836473
3369,0.7293866447966825,0.7192348461064266
3337,0.5866427854267091,1.4232565877388974
2874,0.9347665558177441,1.8092352108950795
5062,0.18400494947525822,1.7497459231155406
3061,0.44764468817586106,1.3851096722766238
3180,1.1385336523905956,1.8269448933581331
5176,0.8510051607988736,1.887596649769936
2953,0.312343618722921,0.4535085913858223
3711,1.0389193447108362,1.983131059451817
4885,0.8234703461259781,1.4173895920389274
3513,0.19925572334872174,0.8314505018161181
4427,0.21377191180196195,0.4179984079686375
2150,0.9006018700624037,1.992047682224172
682,0.19907900485072252,1.6174429116160003
3994,1.1238306335653292,1.964354421584209
2783,0.5161303938597414,1.7717509955121737
4844,0.6687718719840774,1.3496571540138724
3109,0.5574562208741024,1.3610440953739826
4702,0.15594402587335904,0.6258302908586273
4509,0.9953715499657584,1.5579357156692046
3771,0.7109650082321195,1.8080378236563572
2718,0.2653533623895305,0.9595640600330066
5056,0.2244574198798328,1.1489242873312895
3298,0.23599271964048393,1.2596430701839934
5150,0.38090191825153646,0.96910172248851
3226,0.1529651365754048,0.6467506668391492
4974,1.0681370017709928,1.805279735123495
4517,0.5530692735388172,1.4015131290337692
2957,0.19849016120196467,0.4535085913858223
5025,0.19056396334626957,0.32668789989326913
4422,0.26961739324831363,0.3834360121353916
2767,0.8721509462033115,1.6573676214704813
4445,0.22953136524371293,0.3520281457460971
3182,0.9207858685758439,1.8269448933581331
4098,0.10002100410870775,0.8171736268921878
2925,1.3437436340709934,1.5960409463024843
3099,0.3628638515633685,0.7638214368366436
4381,1.0677764984476428,2.5002972778586074
3637,0.3387015124162349,1.8505382243512438
4404,0.17230418999888242,0.578676590080901
5051,0.2081126512289559,1.0174330068909987
3104,0.3566840264520805,1.0464730100363784
4510,0.7927204387975089,1.5579357156692046
4542,0.9837045916345457,1.7905825899556673
3957,0.8307564159189992,1.248393147381678
3750,0.9755039372445459,1.8593061151182917
4392,0.7416429807420908,1.4919481759679392
2809,0.49728163316074264,0.600892389051017
537,1.0430338689879455,1.7110811676882036
3244,0.2580003789081708,0.37962432916318445
4167,0.23270916819187812,1.061743683390408
4449,0.217796017983341,0.37321992910116764
5008,0.3064892943367778,0.5588375729816768
4957,0.9927439225285928,2.33634979929995
3931,1.1459553515404473,1.670273737061446
3289,0.11689570868251253,1.3077272630114765
3606,0.5156636270469048,1.8160302265151806
4708,0.2598967627536832,0.4911502658768139
3142,0.6151293793667787,2.0246763962939283
4221,0.47744999146015527,1.4898152590004916
3586,0.7631907313683245,1.923872585427054
4488,0.6639087726380142,2.0120492686740166
3086,0.6290440759285869,1.0037670626850708
3318,0.5468271627946081,1.3315158976101051
2890,0.7178721913788463,2.0580099371014753
4196,0.8148441257351254,1.9648442281171912
2824,0.28404073961438847,0.5952354560718985
3493,1.0422307253992817,1.3306841024909526
5103,0.7042197508494282,1.5007683245931123
4886,0.7348333017285124,1.4173895920389274
3933,1.1365355542746094,1.5188697315474513
3143,0.6609032742486133,2.012889543440594
2933,0.22479700346085177,1.2734435054154356
3612,1.0363410410571126,1.2209974930677723
5009,0.3016743387813141,0.5588375729816768
4235,0.7679761784129846,1.3823878605139666
2993,0.1671257427613703,1.3308530374434282
4215,0.6877724415386446,1.3792137973323317
2731,0.4860857662116404,1.786472602368167
2850,0.9074587592492165,2.1690764967309657
4578,1.0264353511263251,1.5040423169902863
2238,1.0689046231085289,1.6614864844549195
4236,0.7492558605808953,1.3067018785978046
4430,0.19994345216674894,0.42375329872451906
3897,1.0605393032924606,1.6617207036215615
4442,0.1062714978238774,0.3520281457460971
2726,0.2821424394847693,1.6621822878952635
2611,0.9858979338070311,2.268732484854919
5026,0.157114943730806,0.32668789989326913
2747,0.8683591810654588,1.4102094271542727
