0.5487721669039956,6.074657117602124
0.5487721669039956,6.064416144527678
0.5487721669039956,6.048675471361431
0.5600291075617512,6.004143924650116
0.5600291075617512,6.003876952700526
0.5600291075617512,5.971054666947862
0.6727991912435025,5.967556646224111
0.7189157034952736,5.938946620561833
0.839047775853598,5.856652643599955
1.1832018391241739,5.803080254601157
1.1851378623896747,5.76868598300012
1.2108256757499694,5.7199509048216
1.258946237056047,5.705564819201641
1.2960819721329107,5.651375497805861
1.438832078644884,5.556024152027894
1.4654648786563071,5.556024152027894
1.5019087796196449,5.556024152027894
1.4599792148773907,5.556024152027894
1.3708931169456144,5.556024152027894
1.230718286716788,5.556024152027894
1.1822846619422744,5.556024152027894
1.1822846619422744,5.556024152027894
1.1822846619422744,5.579994800584832
1.1822846619422744,5.650765536013325
1.1817534131606642,5.6542829925332665
1.1817534131606642,5.672183636927806
1.1817534131606642,5.754350208013051
1.1817534131606642,5.754350208013051
1.1817534131606642,5.754350208013051
1.0099391848328474,5.754350208013051
1.1150288459905289,5.754350208013051
1.1825067343397093,5.663376980060876
1.1825067343397093,5.356334087736288
1.1825067343397093,4.741445641478086
1.1825067343397093,4.526486138107075
1.2554662174283602,4.324014317161278
1.2554662174283602,4.324014317161278
1.2554662174283602,4.324014317161278
1.2554662174283602,4.324014317161278
1.2058785594510857,4.324014317161278
1.3307918384323967,4.324014317161278
1.410979646886909,4.324014317161278
1.275627530288397,4.324014317161278
1.275627530288397,4.324014317161278
1.275627530288397,4.324014317161278
1.275627530288397,4.631929685743788
1.275627530288397,5.0676672317480005
1.263734604556672,5.434821122807613
1.0313164850204317,5.654922363366469
0.8480332654936321,5.669305112490295
0.8410335929608143,5.669305112490295
0.7057481970841837,5.669305112490295
0.7057481970841837,5.669305112490295
0.7057481970841837,5.717367242104431
0.7057481970841837,5.765038788688164
0.7057481970841837,5.89336498546673
0.7057481970841837,5.962704448003847
0.7057481970841837,5.96891090423213
0.7057481970841837,5.8326209442217385
0.7356830711148412,5.610046130151677
0.8098818754540765,5.166925842807415
0.8098818754540765,4.34819818070622
0.8607176992116614,3.715193197956085
0.933759821751291,2.8694122589571043
0.9488743399325364,2.6443259812337545
1.0917532811651034,2.480542543195251
1.0917532811651034,2.3910643675222314
1.1908344172427832,2.1585692695662884
1.2137632878693938,1.599547319731637
1.2137632878693938,1.2455817533403442
1.2137632878693938,0.9390829620324431
1.2137632878693938,0.8468917914750287
1.2137632878693938,0.608904939200167
1.2137632878693938,0.0
1.2137632878693938,0.0
1.2137632878693938,0.0
1.4153881363917558,0.0
1.549878032169135,0.0
1.7571757586313552,0.0
1.8082290775114638,0.0
1.9943461203960549,0.0
2.0468449620611224,0.0
2.001736918176806,0.0
2.001736918176806,0.0
2.001736918176806,0.0
2.001736918176806,0.0
2.010482026271217,0.0
2.0468449620611224,0.0
2.083055208571138,0.7385886557847728
2.010482026271217,0.7811161588982012
1.8072219629644022,0.799925022267603
1.4935562181649198,0.8054475296103496
1.4935562181649198,0.799925022267603
1.8072219629644022,0.7811161588982012
1.9348291179503214,0.7605396405939693
2.010482026271217,0.7605396405939693
1.9348291179503214,0.7452283824737759
1.9286537336204526,0.7452283824737759
1.8402825038502517,0.7452283824737759
1.8402825038502517,0.7452283824737759
1.8402825038502517,0.7082833540293544
1.8446219522674974,0.6783472279092424
1.911894889908581,0.6783472279092424
1.911894889908581,0.7082833540293544
1.911894889908581,0.7082833540293544
1.911894889908581,0.7082833540293544
1.911894889908581,0.7082833540293544
2.0928843859576856,0.8047080641640122
2.475060229822462,0.8057796095018958
2.475060229822462,0.8276970255557609
2.475060229822462,0.8761013503057421
2.5704324519602606,1.0941429798206803
2.672798251338091,1.5682865693832155
2.8232328898733456,1.8721783081101517
2.8232328898733456,2.149023506172229
2.8232328898733456,2.2984038194832106
2.8232328898733456,2.388863938184389
2.8232328898733456,2.388863938184389
3.1456479645225537,2.388863938184389
3.3514644987846136,2.388863938184389
2.863667221545468,2.388863938184389
2.7948810645029636,2.388863938184389
2.3530084572878076,2.6125437144707755
2.1823631221117195,2.8351102729614692
2.0227514858115434,2.03201244673965
2.0227514858115434,1.4402715654858198
2.0227514858115434,1.4402715654858198
2.0227514858115434,1.4402715654858198
2.0227514858115434,1.4402715654858198
2.0227514858115434,1.4402715654858198
2.0227514858115434,1.4402715654858198
1.8194988948293684,1.4402715654858198
1.8194988948293684,1.4402715654858198
1.8194988948293684,1.4402715654858198
2.011178983965423,1.4402715654858198
2.3658587832139673,1.4402715654858198
2.6896202249653602,1.808730052419298
2.6896202249653602,2.1958423239139893
2.6896202249653602,2.1958423239139893
2.6896202249653602,2.1958423239139893
2.4574811270303862,2.1958423239139893
2.6296297395072443,2.1958423239139893
2.6392503911452456,2.1958423239139893
3.042664733645602,2.1958423239139893
2.6296297395072443,2.1958423239139893
2.5183692558432953,2.1958423239139893
2.310468112350941,2.35179619150501
2.310468112350941,2.990721547437936
1.8985874521422734,4.341776049993785
1.8985874521422734,4.349280663821528
1.8985874521422734,3.8922725828867004
1.8985874521422734,3.004889362389863
1.8985874521422734,2.6079640107000532
1.8985874521422734,2.0319878444389943
1.8985874521422734,2.0319878444389943
2.184622147055815,2.0319878444389943
2.2108338247648027,2.0319878444389943
1.7884296862086873,2.0319878444389943
1.7884296862086873,2.0319878444389943
1.8437150111650977,2.0319878444389943
1.8437150111650977,2.0319878444389943
1.8437150111650977,2.0319878444389943
1.8437150111650977,2.0319878444389943
1.8437150111650977,2.313284254140953
1.7593608447465192,3.1241572005437566
1.662922461382817,3.9303758707645025
1.4250664130746409,5.194810226275869
1.2185384261867245,5.606416795805504
0.9741772121957646,5.606416795805504
0.9112966799320564,5.606416795805504
0.8366242694181888,5.633345009477028
0.7986562904179187,5.6970821464161325
0.5687410899120323,5.773462920716012
0.0,5.914731259373446
0.0,6.0182484350157015
0.0,6.0182484350157015
0.0,5.534548159820859
0.0,3.987612321649558
0.0,3.199102385926384
0.0,2.545818502119614
0.0,1.9943461203960553
0.0,1.4659033228864746
0.0,1.045531278333247
0.0,0.8474774822709851
0.0,0.8265452913685305
0.0,0.8265452913685305
0.0,0.8265452913685305
0.0,0.8265452913685305
0.7175837645354229,0.8265452913685305
1.3364688905505349,0.8265452913685305
1.8496190627302014,0.8265452913685305
1.433865001592153,0.8265452913685305
1.3364688905505349,0.8265452913685305
0.8542220094998471,0.9002821853412857
0.7220509246132214,1.0492704038667124
0.7082194134566376,1.2983148311495285
0.6338056393856599,1.6866494289173948
0.6171050846778009,2.468540153855389
0.5664770593498446,3.6919015694282806
0.5664770593498446,5.087448750872281
0.5664770593498446,5.911607512525446
0.5664770593498446,5.975031108881649
0.5664770593498446,5.746472430145637
0.5664770593498446,5.54294914807309
0.5664770593498446,5.446671601577455
0.5664770593498446,5.226147474857516
0.567979913710665,4.598908404679789
0.666724255675427,4.040941070686395
0.7945615196256656,3.8492848474489354
1.2588327099769554,3.8492848474489354
1.516723850508331,3.8492848474489354
1.5957056739081437,3.8492848474489354
1.8206204784491173,3.8492848474489354
2.1607871492862425,3.8492848474489354
2.154335367876906,3.8492848474489354
1.6675569845030798,3.8492848474489354
1.5410075044932545,3.8492848474489354
1.5410075044932545,3.8492848474489354
1.5410075044932545,3.8746267760586277
1.3888665331267294,3.0642838293780135
1.1789111463401345,2.3735760135149304
1.1789111463401345,1.8003017246043862
1.1789111463401345,1.8003017246043862
1.1789111463401345,1.623900566403378
1.1789111463401345,1.5324136072946513
1.1789111463401345,1.5324136072946513
1.1789111463401345,1.5324136072946513
1.5841514939906307,1.5324136072946513
1.5841514939906307,1.5324136072946513
1.9916537236084433,1.5324136072946513
2.8522405855227535,1.5324136072946513
2.941392458309872,1.5324136072946513
2.8953918883667895,1.6030296205869075
2.920539785970077,1.6030296205869075
2.920539785970077,1.8697980477622564
2.920539785970077,1.968276454951693
2.941392458309872,2.713103079691403
3.3839130845343615,2.7901372596103653
3.3218949041329697,2.713103079691403
3.0530137854045276,2.713103079691403
3.0530137854045276,2.713103079691403
3.0530137854045276,2.713103079691403
3.1703486755793757,2.4449543114740186
3.2404937749759437,2.0365738650039678
3.2404937749759437,2.0365738650039678
3.2404937749759437,2.0365738650039678
3.2404937749759437,2.0365738650039678
3.1942311937302756,2.0365738650039678
3.1942311937302756,2.0365738650039678
3.0702074312062777,2.0365738650039678
3.0702074312062777,2.0365738650039678
3.057651004202143,2.0365738650039678
3.057651004202143,2.0365738650039678
3.057651004202143,2.2207021074128908
3.0702074312062777,2.3849288818248753
2.9343847944399193,2.1224410541203538
2.9218164746952593,1.9725630817600228
2.864061895992774,1.9725630817600228
2.864061895992774,1.9725630817600228
2.864061895992774,1.9725630817600228
2.864061895992774,1.9725630817600228
2.9676521069790454,1.9725630817600228
2.459959526583896,1.9725630817600228
2.1672942426201875,1.9725630817600228
1.5218103301922097,1.9725630817600228
1.2932867153144663,1.9725630817600228
1.1314088986357833,2.149722978204679
1.1314088986357833,2.605733716934719
1.1314088986357833,3.6499690841619223
1.1314088986357833,4.421834353831516
1.1314088986357833,4.825070992548344
1.1314088986357833,5.125964914963775
1.1314088986357833,5.293220455879089
1.1314088986357833,5.293220455879089
1.1314088986357833,5.293220455879089
1.1912635353779455,5.293220455879089
1.5472590756141933,5.293220455879089
1.4855623528827486,5.293220455879089
1.6295014609845946,5.293220455879089
1.4866774146223916,5.293220455879089
1.364702694412687,5.293220455879089
1.2913560225047354,5.293220455879089
1.1495683758291015,5.489735705396397
1.1234710943322392,5.606393295382049
1.1177656382203491,5.693160897839972
1.1177656382203491,5.805726574251236
1.0165828499384497,5.813763492165737
0.8777980841710111,5.884601413070809
0.8777980841710111,5.892263162330833
0.8019183782085464,5.901951341428169
0.8019183782085464,5.923771234895499
0.8019183782085464,5.923771234895499
0.742209620133871,5.9881121156366754
0.7121038766598469,6.064592116869102
0.6945363839569529,6.0654841071129
0.6579180702746755,6.068877300932555
0.6579180702746755,6.0654841071129
0.6579180702746755,6.055262754375052
0.6579180702746755,5.9107077502826355
0.6579180702746755,5.6302982173604095
0.6579180702746755,4.999570080474081
0.6579180702746755,4.254681250110133
0.6579180702746755,3.44055293359316
0.7769266151424863,3.1768231871315344
0.987479695875172,2.679619611148968
1.1163255510176329,2.471107880967057
1.311730111480198,2.471107880967057
1.343005490162031,2.471107880967057
2.1234533949430823,2.471107880967057
2.335237835793362,2.471107880967057
2.3747870711287256,2.471107880967057
2.456895489531927,2.303143400712285
2.487729009102968,2.303143400712285
2.9040933921456022,2.303143400712285
2.9040933921456022,2.303143400712285
2.487729009102968,2.303143400712285
2.487729009102968,2.303143400712285
2.487729009102968,2.303143400712285
2.487729009102968,2.303143400712285
2.6848256166970366,2.303143400712285
2.720770801646543,2.303143400712285
2.758850819841203,2.303143400712285
2.758850819841203,3.3013772682081566
2.758850819841203,3.898518290800695
2.758850819841203,4.240400936628194
2.758850819841203,3.898518290800695
2.758850819841203,2.752891170835754
2.720770801646543,2.056721888279714
2.6888729898408696,2.0104664505978795
2.9941115691041587,1.9313919650176168
2.9941115691041587,1.9313919650176168
2.9941115691041587,1.9313919650176168
2.9941115691041587,1.9313919650176168
2.7814213000072185,1.9313919650176168
2.6043572261459986,1.9313919650176168
2.6043572261459986,1.9313919650176168
2.39170264413082,1.9313919650176168
2.385097510256673,1.9313919650176168
2.39170264413082,1.9714042078086023
2.397777953334942,2.302458384975597
2.39170264413082,3.613529057860087
2.39170264413082,4.128320559580402
2.39170264413082,4.185539358572845
2.39170264413082,4.003162289982648
2.39170264413082,3.2648570578184333
2.39170264413082,2.5004070944788745
2.39170264413082,2.493418862855381
2.397777953334942,2.493418862855381
2.6860799110777807,2.493418862855381
2.398467566566547,2.493418862855381
2.198398423118263,2.493418862855381
2.151128945670614,2.493418862855381
2.151128945670614,2.493418862855381
2.151128945670614,2.493418862855381
2.151128945670614,2.493418862855381
2.151128945670614,2.493418862855381
2.151128945670614,2.84216839401176
2.151128945670614,3.3207418637014308
1.9066422462371078,3.286572741080232
1.9066422462371078,3.008614395829825
2.151128945670614,2.902081692331487
2.151450240809341,2.8452144497092307
2.231698740659032,2.142466738704924
2.298623604022568,1.5929657573498688
2.298623604022568,1.5929657573498688
2.4030029690087717,1.5929657573498688
2.584127444122338,1.5929657573498688
2.584127444122338,1.5929657573498688
2.7179501652302793,1.5929657573498688
2.891176425281671,1.5929657573498688
2.891176425281671,1.5929657573498688
2.6919105276656463,1.5929657573498688
2.369911822961145,1.5929657573498688
2.369911822961145,1.675873213847099
2.369911822961145,2.158086267011885
2.369911822961145,2.794044847590534
2.369911822961145,3.970204318335626
2.369911822961145,4.074567174390255
2.228681207462249,4.246704391678265
2.0497946877878364,4.246704391678265
2.021255274852008,4.246704391678265
