0.5937415305372529
0.3066366581706171
0.19216429645312755
0.23606035496767125
0.21535254955400174
0.17214822588832207
0.14257303908968544
0.1675957691626815
0.15348270282806095
0.14650765272053387
0.13846571536104063
0.15201275999497624
0.20888180349360944
0.25106432882001956
0.28733920502275184
0.2720874292574832
0.20567064605059007
0.147407772339307
0.14288201926468563
0.3454973413412434
0.5204547554259438
0.458002689035966
0.4851598705953279
0.6529141435295438
0.5539760820363916
0.6550862991570153
0.648583579589278
0.4700839798668397
0.4072849068681558
0.3057314235982213
0.2929121895878538
0.35143498109293403
0.25718627379350484
0.2107894209249206
0.17004634057455312
0.1432599362069341
0.15567639999144026
0.13079352597444455
0.10283453745719544
0.09682703600789774
0.06550459558495765
0.10083689712647878
0.0812082445011754
0.09412715525931549
0.09284218085009738
0.09351924084024693
0.08277361280615896
0.07079742411235816
0.06082467390512721
0.08210048293239297
0.08131055540397283
0.09081732913237478
0.14528446828257718
0.23718415184969088
0.6212367812095532
0.522960393308941
0.6029099053793862
0.3413366814418985
0.3209938626708278
0.21436273839562
0.1826111124604419
0.304801277899204
0.2679477294136991
0.1614765542695387
0.1815088071856037
0.13482295534213232
0.14597130782409196
0.14286831317103516
0.13798528098372767
0.12878041793965922
0.12491166285428697
0.13699586228694427
0.10150640962307346
0.12770666388188393
0.1389959539440515
0.15415841147724993
0.2173107842199121
0.267025968761531
0.31888153018569837
0.47594401566879074
0.527321739644864
0.4953867852579513
0.6098375946554717
0.5905097506852721
0.7095734374152081
0.8100118788701355
0.8597151563816674
0.9979494575071889
0.734118600861278
1.1606656368093882
0.7742224542577483
0.5683835101062098
0.29522140077173575
0.5083262965463158
0.4633086898491634
0.46624349937780957
0.41657393577333646
0.501460330480794
0.5492183308479793
0.5276819647153522
0.4795088002165719
0.6053441460888446
0.33549090529174286
0.4104083278543369
0.37888948983782433
0.2383235130693408
0.33462896399553965
0.3570295611920496
0.461974722055266
0.4080042671223425
0.36119597744913334
0.5496974499409577
0.8508855447881813
0.9595930899102115
0.8970637242388838
0.8312458893534438
0.8339807443155541
0.8978121825251075
0.9988905982869846
1.0443103148451454
0.9504848441377022
0.8567058140158464
0.6673615092827865
0.6051035015219474
0.6805963242103822
0.7281626124486361
0.5241000884090906
0.47775247889824335
0.5130290127463085
0.6224348609608976
0.7311511795113655
0.7995379068000183
0.7725120004926862
0.5811034057013215
0.5972000765912654
0.7295738442980209
0.9878380916825433
1.084652289093281
0.9845920557876097
0.6120974934474308
0.7377556651107758
0.8657510406503458
0.9803466691673287
1.1700856010638567
1.170955617173582
1.2553649907219147
1.02577849482232
0.9184781380068131
1.3777463390954376
1.149364834914045
0.5562752783983089
0.7661899088087535
0.7999163424217343
1.0599104516284878
1.2432089990069979
1.117448699944936
1.5461494111360932
1.9996223578395032
1.800315283301377
1.5346972091279072
2.0578978450701992
1.5356681425330572
1.184840748540002
1.0845285199572179
1.1023783523340072
1.138931226458613
0.9528937531241971
0.6582122740318648
0.5145150905199944
0.4807869693870616
0.5605188229523824
0.5280036370790883
0.37416753706780753
0.31035774603824334
0.4537832701963445
0.47590580313684744
0.3226988752610267
0.3750568137634905
0.3873234722932196
0.393443956863008
0.4115242638787176
0.5100818917311322
0.5346014119049115
0.3829445917231473
0.43221229282953544
0.3771080670583066
0.4274557777446575
0.3464374830624485
0.4369015725470454
0.5259307082763044
0.48591890646801444
0.5453441611488822
0.6088563694545251
0.6041559782640635
0.6359596711214551
0.8701992912453534
0.5485351887450327
0.5672805502699204
0.6228185597155181
0.7883760222891194
0.5266414782059359
0.5266414782059357
0.7043003676578453
0.6407596038352853
0.7100716024967263
0.6930653813885834
0.902521074258456
1.081161676684975
0.9776288064824876
1.0497180132866206
1.0340974775978065
1.1147923639787867
1.208985577769484
0.9977588472153798
0.9977588472153798
1.2463467878902923
1.2874256423295727
1.290994448735805
1.3000425409422984
1.1389135152500736
1.4842799784519183
1.1549347198053055
1.1612825496640395
1.2606206194172294
1.0602899353571693
1.274307935633669
1.1729380093199635
1.0846888517937998
1.1431845446514333
1.191982971370522
0.9928021005861117
1.2428759179050366
1.1476692207053225
1.2598813800746478
1.0203249107171166
1.0958321704195884
1.2868907965088856
1.218774796366818
1.2603832624805271
1.0763377767269824
0.8812019025920932
1.3397021221133
1.2644142998317938
0.9426504735894367
0.9740536989899262
0.7772975595914663
0.5780581657442634
1.187766689496464
1.0689032277990675
1.000874927104722
0.5698352242730711
0.5665941309727764
0.5623236489638856
0.683621082218374
0.7329789292954031
0.8497537860901551
0.3754278667882947
0.3580428882330039
0.3972647176381271
0.5222947909470852
0.43670563669260315
0.6896934401573164
0.7186439733923206
0.7194268284345607
0.8499485377598993
1.0604393234893252
0.9005745095348018
1.1341400831579527
1.1654066049256102
0.869312647405142
0.9528286133328223
1.0234162489330727
1.023416248933073
1.081161676684975
0.7046565777539329
0.6115958434275838
0.6605764246755064
0.8394781565028097
0.8680420462752061
0.8702204058215874
0.8082441975100142
0.8631113933565767
1.0141078647319266
1.162554289940358
0.9979494575071889
1.1649342646466483
1.3281605019461824
0.9938842891926123
1.436308152751689
1.2078772595153062
1.2559269648854872
1.2872882187651438
1.4656242699512378
1.4391751184995518
1.619650309090426
1.377945636523875
1.074377076606803
1.1018795914853154
0.831801363748591
0.7382561376993325
0.6807142442024959
0.5798102007993481
0.329291897553806
0.16413713327680537
0.08798576722864754
0.0631418799481603
0.08331494249262456
0.14542783991541533
0.14089980948319264
0.1470340678389507
0.15521573635227778
0.17672840736898165
0.19791983745748715
0.18854903937396109
0.15401928921317254
0.1842547836162918
0.2990606189568361
0.3750568137634905
0.4261225969245187
0.4142816005704052
0.5094828755545486
0.732191650890134
0.8002903584572206
0.39587674425057406
0.3914771382040945
0.3600180614469352
0.3749858243788885
0.3994115790017447
0.27236986436381166
0.2214376666772646
0.20268328326161977
0.17911824283693104
0.22897054754617718
0.2010930146363463
0.2152276223613048
0.18187369322467573
0.19240651842676512
0.18299748631655233
0.120512136939097
0.11304370408420636
0.09969593390891272
0.10358933277192171
0.10652018231901869
0.10784618949945199
0.12903135360893367
0.14280797707426032
0.14124970298994322
0.16536375602608072
0.22331670953264646
0.3934329913015571
0.9042498811387549
0.9349333393184897
0.7732378793487479
0.652206742660552
0.7877767538781096
0.551287208884178
0.5150789728597518
0.4051421063857426
0.3844569998572959
0.24347858589696347
0.22563536099392872
0.1596111113087484
0.15004936665890614
0.12472593867252244
0.10582054965758762
0.09837570290130493
0.1077681817932093
0.09672551501330773
0.10199030955150906
0.09536677907871025
0.11457657800099098
0.13201923905454313
0.17497403963331437
0.20607780440771287
0.24295913102524855
0.19341020663531694
0.29343376907237373
0.37526517413373667
0.3184960600318871
0.283047132383638
0.44309544667921374
0.6659919881876437
0.8344374545717647
1.0092099578404932
1.6365737068836719
1.6773502252395576
1.0552713354919188
0.505381231289742
0.5066604243940145
0.23050024206082054
0.47276596576893076
0.4018771056918967
0.41570185374799723
0.4116277976788655
0.4676776491993849
0.5403765826895062
0.39937563613065435
0.3799489193924191
0.43842909556830184
0.47208449484422393
0.4795088002165719
0.7277412258591184
0.6707227869684255
0.5850606500441572
0.4734278661040549
0.567697566041851
0.6349447106034521
0.7214113107584279
0.6371875913436671
0.6054859555863601
0.47219954191372676
0.5847599597831757
0.6533450604476717
0.6533929304239796
0.6207002742137057
0.5751058401658834
0.42217810309127585
0.5933286585530474
1.2617202104902847
1.5656754230567878
1.56539773656292
1.4354381593409349
1.3337664952540487
0.9621723603893632
1.3525044520011482
1.2143880460824072
1.305710562133537
0.7834025186380887
0.7113888123308697
0.7369136506621345
0.9073771270507298
1.2810766582918443
1.177853592090922
0.7168794572416795
0.7852328228179775
0.6790563368652374
0.8447785023318505
1.003432008357032
0.8681340068998052
0.7682700823291909
0.5344124895334207
0.6606755309266668
0.7450839179447719
0.7477610711211372
0.5936471645240012
0.4776124821038838
0.4870481589465548
0.7507435122419293
0.9171178946934612
1.1304874399550031
0.8375108306322359
0.735964677223444
0.6766627350961113
0.8140566909963659
1.054980641254059
1.431837587529817
1.2914805494271882
1.0820837826734246
1.0430816549196191
0.8321238081690147
0.8093322261694353
0.4802316166442443
0.42151632421545165
0.3945803920412801
0.5310056002396161
0.5280036370790883
0.46938449262858667
0.39450320329798516
0.3562965508661841
0.31464968684659456
0.2658223852976344
0.45916621544072644
0.4360802934990711
0.40418276342082465
0.35178522258068556
0.33275414806788156
0.47385065311794244
0.4899536912955263
0.37416753706780753
0.39241720096267996
0.40757465508199997
0.47627117196704616
0.5141635335537229
0.5086698905201495
0.5177360038835739
0.5358632625649572
0.6672619444515208
0.720782126349919
0.8216228923239625
0.8221175856632068
0.7173449315192262
0.5651093070117049
0.4175703846017183
0.590327718599248
0.7658731251271782
1.0360758325021924
0.7716157842936313
0.7665152630764475
0.7750115897248948
0.872039668351171
1.232065512078022
1.397830797372885
0.8220551886344438
0.75225928113434
0.7565408201354377
0.8379599845797036
0.7746401174456281
0.8112187031796503
0.8082441975100142
0.7236307900310315
0.861739875643879
0.7234432692777286
0.6906745658930789
0.39882620090928306
0.472671864607513
0.5484269616381795
0.9368067073400868
1.4966255073439267
1.455368087777702
1.5251772099672345
1.4900606111938743
1.0350052428349716
1.2209353913347214
1.0655135870092998
0.6425639915337242
0.9967125169602954
0.705789892781185
0.6737114502213034
0.8427325856223499
1.3230433293096464
1.195228609334394
1.155835801987091
1.0979975031754825
0.7516551285357663
0.9280183561106301
0.8510792698364141
0.7968517790999764
0.8231318302635295
0.7343277215599138
0.7821547685927304
0.8668692225705068
1.0026095843748104
0.5803688160104908
0.8717532206484602
1.0294922565407119
0.7893753834158644
0.780725191328984
0.941327842591136
1.1263478077030795
0.9928021005861125
0.801761193669433
0.7314191273932767
0.8163538475315734
1.2080992435478315
1.3551218728991954
1.7385356618305798
1.3236331066074234
0.75225928113434
0.7565408201354377
0.8379599845797036
1.050440008917925
0.7257361605095537
0.6601115723010015
0.44640272437922307
0.4562472953218595
0.8000227057867055
0.5417124611788463
0.989963714306632
1.09689028190987
0.9470243668314673
1.0946341055892426
0.8833158864082014
0.7369880227444175
1.7329940242320663
2.2196403604406147
2.096152158051384
1.7109627387632977
2.0506700700822122
2.22076304473567
1.9875967499218186
2.1099837837619813
1.918196479751525
2.0701966780270626
1.462192875006792
1.2730174559134193
1.199352739544596
0.7720564305531697
0.96888529733945
0.9663057284682176
0.9508762330076075
0.9635609987951603
1.0041313619588033
0.8356093476584465
0.7893457491511616
0.7521125880427432
0.5821706055497584
0.4573706446242232
0.47010172236940834
0.6332833981551967
0.7749460323275656
0.49127274981323815
0.2094780401758391
0.13887725243668297
0.14971504485513154
0.1284413711859676
0.14038520009083966
0.12677664443822
0.13231356248343043
0.14423576902036295
0.19093116613263164
0.2697018202496798
0.29202913900846356
0.1936146497220892
0.148757129315318
0.17016459561144495
0.46125367846390547
0.5523070777490009
0.3486641890568175
0.4241070629839754
0.7206315528694613
0.5916280421316041
0.4441649092394873
0.4312735124316321
0.35653332559584894
0.323876847287296
0.25431226665217216
0.26216248354519894
0.2134512790396417
0.1940960062615228
0.17654649291661556
0.15888121540097216
0.15446464508387775
0.1044687969470916
0.10283453745719544
0.05666090650585901
0.06462762564477983
0.0915103103266994
0.09871366792995549
0.10216690721289343
0.16915418789641423
0.13208877500479568
0.1580906411809379
0.1654411664049143
0.20412860530145788
0.24152125468136337
0.30565822118333347
0.4480933717534676
0.729167429007183
1.0281822334167519
1.302663660131064
0.48372835561516414
0.35123382601960046
0.43850675953422286
0.2830932702393291
0.2328963423089641
0.26922856608899987
0.20898994672207105
0.149357420626936
0.1406191295589037
0.11934754436349727
0.1221275991577198
0.10022312354729863
0.09498957941841686
0.09536677907871025
0.11457657800099098
0.12379492261487958
0.10549709099526615
0.17369640468990843
0.232271851727948
0.24678358064351252
0.29343376907237373
0.25973447365555485
0.34378102787971176
0.31338961102292484
0.3527995513236868
0.4889911172015344
0.6056398875217797
0.5973997405858563
0.47268825162996875
0.7367785055574152
0.31188048172862637
0.3792091502434336
0.4259720993078471
0.42622409376469017
0.33218128426148524
0.28746798487346703
0.2745860026865168
0.3300591731870056
0.35662353180328127
0.39886358749517753
0.33561840287726186
0.3068355011283004
0.4099276211563069
0.588176162681643
0.9180541401689876
1.08027580438313
0.8587165450339578
0.8207595454146023
0.7321626993962662
0.5566876460656024
0.5333069176560152
0.8208075928065898
0.433319200113532
0.9189559607864739
0.7524826034473825
0.9166976873829489
0.8767856791878066
0.6991300384008688
0.954895654032823
1.1715993393797655
0.8675045810022645
0.8250094689111593
0.809213246629766
0.8157132788942025
0.6612902728829291
0.525843963099776
0.38643594904782247
0.46411036914030324
0.8551400113621406
0.8598012861530558
0.9573146477150404
1.0687203962749423
0.9351692894462517
0.9186112518669437
1.0183271779362337
0.8100100542602823
0.970019331476344
0.7706170436713644
0.8024423729431772
0.7628919950210514
0.8898603457472605
1.1264412440475293
0.9749423144986881
0.7901429193394411
0.7537060251358667
0.815020070921082
0.8050107903977541
0.98894390174279
0.9527682149834923
0.8526927968275563
0.9290532072777018
1.5258314185170492
1.819800544019087
1.9596056792873309
0.9091457751239523
0.711693455291329
0.7952579321678144
0.8435680060309912
0.6525058202013088
0.6036277391872465
0.545000335838177
0.6205715535254315
0.718367240255635
0.7093291674487541
0.6630069421473667
0.436259342177687
0.4409323266099303
0.519355203670636
0.47283364624174856
0.43662173117168607
0.36234961713774466
0.33292467015885874
0.3595239519804102
0.3582646341292669
0.4369015725470454
0.5214601049326599
0.6461981099594961
0.6814201801589933
0.769905013988898
0.7329789292954016
0.7930774358110382
0.631016654660623
0.4649827881782061
0.2246343008261522
0.3788069141009615
0.5380591778939997
0.490352032631382
0.6875682969047786
0.6956801820211285
0.510975586206313
0.6300415702484726
1.035094491458463
1.274761916716078
1.111658145488822
1.2633024690323917
1.182681593457677
1.113830311531111
1.0314007644915213
0.9333551778114884
0.8454957213226079
0.9454584357243694
0.6279285495168243
0.7349558197846562
0.8098727536826626
1.1119440684827644
0.9974895889865337
0.889340423344824
0.9746525215210707
0.9378915810819748
0.7955158613252531
1.021000059467842
1.0101232743075401
1.0108118697156094
0.9207548760363602
1.7423720398154896
1.808113449349222
2.1476354096494386
2.4719063011587785
1.865846506643066
1.6583660521176569
1.1622791456914376
1.5405077483812202
1.141886417940842
0.8092474030356444
0.798981743395081
0.8478492704712411
0.8107659608814531
0.8945111429739154
0.7683538891595102
0.7723937097662088
0.7823464853002943
0.4965727090403459
0.8548908731816839
1.1198516358642738
0.9516779302250836
1.2685100860524041
1.0365775874984138
0.7274505836141179
0.8487660196066149
0.9181908929273156
0.7326252409444995
0.6940232369140898
0.590537833741241
0.8226949910729899
1.0470047113656498
1.3671859164609166
1.1280553498964894
0.998715721650606
1.2909658742293981
0.9551898125733058
1.1077000938003363
1.0188016741557406
0.9967694485623737
0.4621132741594115
0.5612247168350581
0.6729861822203538
0.7615400122028786
1.6461237738150127
2.0254241398744086
2.421996833520917
1.8293818686241805
2.1033631165662094
2.041011168994309
1.7161654914325242
0.9468425425816592
1.1511001268667787
1.0075418685428208
0.8639715577420694
0.5248362517380816
0.5459663629175194
0.5235857466737799
0.5656259400166135
0.6465250276450607
0.6784509743312588
0.990657810388085
1.3648307974895775
0.6467588377498468
0.8051036583329734
0.7045851797304394
0.785257523445373
0.7868798232729791
1.0470047113656475
1.0802614421332686
0.782826857196832
0.7501919020573432
1.1065143994926643
0.9471696461629174
1.1941964481011487
1.0402154730380584
0.7848295487659145
1.1732448542530585
1.1939087616533008
1.1445638635063184
0.8649256724312464
0.6109290347095067
0.5447813208617434
0.6495762258681276
0.4939209415545009
0.20198543047618006
0.11687019845866169
0.09002850966456247
0.08466024824122322
0.08212278875006608
0.07182158711375944
0.08517866241843648
0.1007686221680743
0.10167720176774636
0.09313156882640912
0.07171116137830098
0.05078473954223769
0.07474713368850834
0.18055780265329144
0.5380924870534575
0.8137843695441653
0.7912547028914367
0.7684880676599152
0.6615631539867276
0.7375365321132803
0.7347169960820468
0.729926519379187
0.6436390967698695
0.5236699090233036
0.4827616444759246
0.3691776692512923
0.30254323840984704
0.24619681745429858
0.19097995704322518
0.15226255891962212
0.11092127485590242
0.09626453180850258
0.0565268878063201
0.09150334613742783
0.09209975666033873
0.0995796385135928
0.10488653392489743
0.11235865159095307
0.07907683622463677
0.1656376227997742
0.18312725564916538
0.21166385598184037
0.22398903969674794
0.41259415041333175
0.546713834724501
0.8214475362287851
1.0686984891275229
0.8210166466323452
0.9129824460471669
0.44308671552888773
0.32951775589344245
0.22464972733285998
0.24885173096404598
0.20097162640964777
0.15679402418654492
0.1552322907744711
0.11792730533917331
0.11936462515583601
0.1312606542162523
0.15533454307306938
0.15348698563104635
0.14230115679534605
0.16232011119307319
0.19583569998879388
0.18156066392079567
0.20387449186059697
0.3073657073008248
0.34423668484498543
0.4253175697154664
0.3687845625687467
0.7592943155799459
0.8859490272935929
1.1008918711886757
1.1982893790305562
1.0781494501000015
0.9548044093317823
0.4808095846755125
0.40164133533269053
0.5185825611162893
0.41265913539850263
0.233321137075921
0.24151545516766199
0.25192788709427455
0.4099611354056514
0.5239026633216983
0.5871195744323578
0.6084208345550971
0.5920525499867767
0.7914945168694906
1.0382693910297838
0.8872548439244514
0.7047365905414552
0.6312336771263415
0.6658498528231922
0.7917847250702055
0.9303620549554137
0.7611586884371268
0.7997806227113656
0.7113042234447072
0.6747677411856036
0.7718429860421101
0.7586753694005629
0.6119320785080234
0.5681351306293756
0.472755860188501
1.0083743900896232
1.2498299635956267
1.3302847581812305
1.3612123842601567
0.9965486978419865
0.6840253997402228
0.762341708601311
0.6686237149984744
0.6575801367388403
0.651625889999131
0.639071527779052
0.5769870799733405
0.6218896297138158
0.7765140364006554
0.8457225971983386
0.7891269653615155
0.5780663928587075
0.5048577509388474
0.8528829078801081
0.727759370447632
0.841731493655634
0.7730563337362222
0.825721396097274
0.5477003831398864
0.7283919642872505
0.5551726102812241
0.5800650060645776
0.5103056141907012
0.35105422315189744
0.34426936773411065
0.4791288493267538
0.6738632862695799
0.6114274795929878
0.5386370714370731
0.4466214851754781
0.5447813208617434
0.6154141107584847
0.6585763937833812
0.4985694246742689
0.42403879564904506
0.3217763624931451
0.390330758433089
0.3706306469058694
0.5046845815237058
0.7633164162709604
0.7824654864809488
1.030249506194639
1.0369094875530933
0.70555825112757
0.33524913203808454
0.26338624699962326
0.33319119555059734
0.3885184453129264
0.23879746398077986
0.3225601637703751
0.34619385722992496
0.2944443985141433
0.33341648101974625
0.439587661205275
0.5265377798272721
0.5433532981485487
0.407473537076834
0.6094458066782716
0.6125798787257183
0.5763142085036395
0.4778234797276556
0.5377165093859044
0.3399505287113733
0.3769638189935843
0.5843518766524486
0.6637179681619333
0.6003248110487227
0.3754278667882947
0.3915514270232381
0.3972647176381271
0.5222947909470852
0.43670563669260315
0.7660323096975964
0.7097576260467725
0.662985749830678
0.9739395762368028
1.1403579898360108
0.5003226518550298
1.2648751261244489
1.0384774279009146
1.204680422205965
1.1998193140009852
0.9760833881003554
0.9760833881003554
0.9760833881003553
0.9518151346896327
0.7924467298239748
0.78105425623172
1.1238479513673827
1.3694407635851418
1.3097970751787915
1.1190565185015302
0.7540216951506504
0.8739331243264362
1.4655551965813256
1.4520670310320476
1.4036468391129988
1.0220161159527659
1.027646538197668
1.2865677139380622
1.0780489865411433
1.371254700340948
1.7893677213735937
1.5742128964435997
0.748067654698774
1.1166564114827366
0.9977715754679746
1.1828801420980144
0.8970503882199369
0.9403229307374709
0.9938842891926123
1.4063215900855315
1.4369940320000294
1.4687234511658684
1.4565951570845344
1.221632543875688
0.9994798934437575
0.9091457751239523
0.8903148938094215
0.8876511275771839
0.8980019182084944
0.8023191695403356
0.8277126569538643
0.927426754077564
1.1139718091943163
1.0767442554219053
0.5003226518550298
0.9612528027230055
0.6013380411546062
0.7914310898148021
0.9505805378548723
0.8656393951337725
1.0580210902470772
1.0427907418712437
1.1770526901733145
0.700427493947393
1.4494296593036253
1.0704518865494164
1.0704518865494161
1.0876151628695339
0.9944363937940129
0.8262548013853669
0.9379885295114225
0.7475875719802577
1.1124045939529363
1.0411050305754317
0.9028830594384146
0.9281274605585448
1.01815877858781
1.124713665818065
1.1746760610385543
1.3767479297902898
1.1660646089283553
1.3478543103582135
1.5570796439452848
1.2187539618486716
1.452174011054394
1.6107998191944435
1.6148594635997173
1.1902027627145055
1.3300603915606208
1.3169007288793895
1.210932150598648
1.1399767949049089
0.9130734088789363
1.0201140605634977
1.2936440160611804
1.007366625708383
0.960291828451117
0.8271060950530714
0.9117734940746555
0.7077195538998023
0.5151349684327279
0.5130290127463085
0.43294374448817824
0.3238576953368544
0.2062555992431063
0.1436380391818478
0.11323745416027318
0.15963968625058034
0.14650765272053387
0.13846571536104063
0.15201275999497624
0.18816295881053208
0.18553879420167207
0.18760094709935313
0.20014450784701102
0.18263584976009511
0.18929960204263427
0.14165402202560118
0.8564700606422151
0.43504529656911384
0.43162428249495294
0.5190688489564858
0.5156260323913505
0.4824116946544912
0.5447886712779664
0.47859159388622385
0.4090461150685553
0.27236986436381166
0.2214376666772646
0.20268328326161977
0.17911824283693104
0.20486600509039674
0.11600097433796218
0.11205719657421259
0.1243698499461886
0.11785803475850612
0.08368542271392942
0.07262504043842466
0.05748986927579973
0.05637420123354425
0.09985425724683426
0.13872113504851633
0.1435967715963855
0.1325961908331419
0.1673833509811564
0.2298424485878623
0.3263663193994811
0.5600324374132052
0.722348181210057
1.0397965105644218
0.6776440208413385
0.2992281876883327
0.247416831972589
0.16283227646516135
0.1333083822196766
0.09956131425312843
0.11835886650769677
0.1075861049419988
0.10602501005147284
0.1226184624221145
0.0680511295666923
0.0720598572861956
0.10127555067718208
0.11649157931858832
0.18663914447456367
0.22622603627796653
0.2893090864247815
0.3302555305578259
0.3212059877631795
0.3078114132956252
0.34191448020494436
0.34976743296874024
0.4106398671210156
0.2513506513332259
0.38848459045432704
0.6402082296461895
0.5108228132100361
0.6807854391765374
0.7655937022121618
0.5418186927281764
0.46042637225575
0.41123808827939456
0.38508200586432406
0.41664547096114046
0.47775247889824335
0.5013170447827762
0.3574346818037768
0.500360767006178
0.5279438147466536
0.44921861495695303
0.6355199004625985
0.490310682744366
0.631660498600339
1.064917677094433
1.1213027824845698
1.0603345723991655
0.9755302654738421
0.7116145656113915
0.8593269719413135
0.7030052514138627
0.4849145678859379
0.5000125156556017
0.5735618965195732
0.5685150485901126
0.6603839151913099
0.7884592665629532
0.9109650839196238
0.914433100011396
0.8875219807242968
0.5919389001233095
0.7813131471847029
1.081586158787396
1.0264583773281182
0.8131429764853448
0.9950695747802027
0.8712703796551263
0.9875056011783263
1.099416342840512
1.050671015318763
0.9781621837051903
0.8444990702514659
0.5539551779324113
0.7441407679662287
0.5752399279211587
0.6033895350226935
0.34378102787971176
0.31338961102292484
0.3527995513236868
0.4889911172015344
0.6096289798341565
0.35353054600212885
0.5862931425670665
0.6120974934474307
0.42305367931561844
0.5573833238088146
0.5960681112309291
0.5648713030756383
0.6001630484411763
0.6501589809160211
0.8258929879493314
0.5892736005133872
1.0219225878672415
1.4445437775261827
1.63291645229915
1.510324820396177
1.4922773897468267
1.235026036319101
1.5137429045386628
1.231551405283292
0.7746767130777025
0.9444823152242203
0.6156145542470242
0.9181783242620213
0.7809785632651332
0.43846253119870776
0.5184064227739937
0.48116581750149523
0.5306419353620697
0.5235044310813737
0.5094382113530068
0.5018069479081501
0.5503452701325272
0.5674321041080054
0.4027174752151519
0.3122704798896814
0.2246343008261522
0.41676483209337295
0.45785865766675216
0.3781076888841137
0.5061822606257014
0.4862336258181275
0.41641506144372675
0.31035774603824334
0.44624644120225415
0.5093615976080285
0.4855559946572891
0.7685202369492108
0.6122194583077741
0.7332355751067673
0.8044260631801399
0.8857058954851396
1.0048321831593618
1.081395154521497
1.01634246155334
0.7950880161963081
0.8268030125513223
0.33951570947252846
0.6726374853380004
0.8110388718284907
0.6756927413868422
0.5924110772176859
0.5839513956119695
0.7740156602287345
0.6775155915087905
0.8672491911171817
0.8923571562546208
0.9115449095255339
1.0406875977407455
1.5717825214674355
1.1554072140435936
0.8226774753501703
0.8385808994543607
0.6560378056005727
0.8183943210540123
0.4454135741317738
0.38402917669286835
0.8195458390505372
1.1444349088340755
0.9776288064824876
1.355234083298082
1.3112789601452368
0.8255097635124568
0.6369628542518282
0.6432369553152917
0.622019589162918
0.5665540599785391
0.7686607219252206
0.8884317053214501
0.8950573935026637
1.4488632136804804
1.199104083236754
0.5327896625982063
0.587914914116304
0.5088587119972228
0.40613241860134514
0.45432405447815394
0.45397993562834454
0.5043820325986109
0.4308463231771853
0.4680427252716051
0.4354587029319358
0.5177360038835739
0.47440288502653616
0.6957180837898125
0.7892837497014437
0.8768239980052123
0.9188394331460265
0.8354221765119304
0.6705855776386451
0.7835553746969537
1.0004947510814874
1.2642799221447953
1.11452442764329
0.8024814373978422
1.062376833490572
1.0470215101911777
0.9206795732777362
1.22685064493541
1.3704852076292868
1.1382625688163037
1.0267535123570177
1.1188385242732226
1.103556133158142
0.8291512528207481
0.9738650377164112
1.2365358203604582
1.249161795405152
0.8762489134091661
1.0527554807874053
0.8052825351953317
0.988310501072453
1.092953353309119
1.2504999983256613
1.3677153653869376
1.2488205274936677
1.1076800743662731
1.4626771590751644
1.7284054464144538
1.321892872539004
1.2202434235929789
1.6812044403808666
1.6013458578601865
1.0634250979760975
1.1477242483322883
0.7719011333778419
0.6436334312652895
0.6956368769807304
0.4866501165086637
0.5048577509388474
0.6272784616021949
0.6854380741891786
0.6514155679011262
0.6243634230539911
0.40628109994676187
0.17034856602364243
0.08828182370299385
0.0783176871926371
0.09762573389801538
0.19460045583027222
0.33401845426616805
0.3681126161526779
0.47803599767648325
0.7038822787592025
1.020715493441231
1.1606656368093882
0.7105262630336022
0.5464164516555584
0.29200186435295605
0.08282514921956684
0.2131769367041829
0.2762352624195655
0.3264871322315484
0.3871329086725275
0.3405895368789501
0.2594787191381925
0.22639635701652838
0.1252937052985911
0.12877033254689924
0.09287651544470824
0.08210048293239297
0.12917640713077527
0.07908819813843791
0.10577888633313644
0.19189621675713087
0.23176361129037934
0.301438334800604
0.4709127248273517
0.861156427736971
1.017788141313848
0.6438054607927113
0.7414277879369674
1.2067759070621262
1.3541491059456126
1.0754724694034308
1.0910531052331247
1.0910531052331247
1.0332248085002123
0.73155769293263
0.591429208314816
0.6949958128149507
0.789622605194541
0.6184454869699034
0.6896934401573164
0.7398612362216908
0.7281154022429475
0.8304453166776905
0.97530624033238
0.9915616524383641
0.9515707717819315
0.8022840408757784
0.4965727090403459
0.6667776506883023
0.8743418457327797
0.7861628780496971
0.4354587029319358
0.5283019757037375
0.47440288502653616
0.7750440967603539
1.19606365829126
1.426825841352526
1.4952200191348164
1.1345835414016252
0.48847365741999405
0.4290878256172824
0.7675652043007363
0.783247561853989
0.7819102159035006
0.8553471601352362
0.9163497020567583
0.776220288933175
0.9289719475550287
0.9762054325048336
1.0927287102014172
0.8220551886344438
0.7626249482349154
0.7425512175018009
0.8635178373791598
0.9176662092820684
0.801761193669433
0.6746311551636844
0.7501907372252825
1.396694820039336
1.6329164522991502
1.5838916619831074
1.591307617235156
1.2598813800746507
1.0368252331683516
1.5022562080528263
1.1606410571819172
0.9778724191865278
0.8916750775998209
0.7678128401643302
0.9380148158202101
0.6119320785080234
0.5681351306293756
0.6870515836293741
0.7417901922106837
0.8548629531288863
0.8629454743834255
0.9661367397113968
0.7828355711892803
0.494530420943627
0.5991825973115291
0.43908364320871707
0.38851434494290515
0.5399727068637415
0.4327463816998567
0.3383943195112209
0.37641240027554496
0.40969311483389487
0.4339945145499433
0.4059795966117486
0.3003031972770254
0.28566712601525307
0.344943565801619
0.3456726866541023
0.3674873203128099
0.2561465586843853
0.2348850728548722
0.3565260564004941
0.170355251221804
0.3337011680664659
0.3429630353641537
0.3801591851302257
0.4104083278543369
0.37565013086101773
0.4484810167169834
0.5597557137550215
0.5922472215509557
0.3811803972616501
0.4376443030750999
0.7169223076036729
0.5961897772411879
0.8011873230103264
1.05963808570646
1.1399975600046683
1.2065382234571718
1.3045587883322864
1.285896880462148
1.4626771590751644
1.451688134766965
1.2832541799484087
1.1632943094624495
1.2767047504457385
1.6168451020314432
1.3039514743372504
0.8318827925112231
0.9188394331460266
0.9188186267319562
0.8358842178619117
0.7049235000881017
0.590537833741241
0.8305787099987868
0.9185024328466334
0.6250136610202651
1.1033211955661788
0.997374619023387
0.9665253726313675
0.8527894759352693
0.7822973012636215
1.2919077253358926
1.161210358345769
1.2749729409047414
1.3016864041203164
0.9281253753320492
0.9246779387462503
0.9616757877461399
1.0254224510073942
0.9541028034911666
0.9792812501346304
0.8742698084788044
0.8378391092087378
1.2119756307473804
1.30891769266609
1.2824368750002835
1.0233940409176832
0.6784541253075337
0.9124394225719152
0.6960333455169013
0.6854668820487595
0.7695143172707
0.8652522596500386
0.8636690169556406
0.9498988649298259
1.0304865630051192
0.9766899877442164
0.8250094689111593
0.9761716710406859
0.6572795304821687
0.7199053512627447
0.704656577753936
1.037765819845794
1.2900096693306324
1.219711439680515
1.0826066163477452
1.2080992435478315
1.0749609127264916
1.3056577524003552
1.2326671189480474
1.253453826425794
1.0203249107171166
1.0958321704195884
1.2724979874538511
1.1290084110683973
0.9608583001265596
0.9761716710406859
0.6572795304821687
0.7199053512627447
0.704656577753936
0.8383158405235114
0.877223487592263
0.8772234875922632
1.4039696204556622
1.2766135661941178
1.319504353568156
1.3001260129349181
1.4103075099808642
1.3255927310381612
1.072997503629931
0.8997678442595789
0.7773861584240419
0.7121371682156585
0.7045851797304394
0.785257523445373
0.7868798232729791
0.6393956131102071
0.7609683924297898
0.7526955458038113
0.9636435492358576
0.8623741870445484
0.7203054123997316
0.832625475234794
1.3008981151763575
1.3698437660741796
1.0586453390005157
1.131730412602069
1.201569550610226
1.1589711931918598
0.9233348379080052
0.4372142288108659
0.6080045924322997
0.41138477882814817
0.29960971170720163
0.7628781274113576
0.7151765493965571
0.8227061084406211
0.9055001802630583
1.1065311807579334
1.1487028537185902
1.1291970322935165
0.8554789069225843
0.49928803073831685
0.596770492621867
0.5207477903004285
0.5130836329669152
0.5575447276844988
0.5037066165279835
0.5633114255706455
1.1251348704017534
1.1297792532694313
0.9196021725396886
0.5561923767582921
0.7041081244967177
0.6553547515631605
0.665077809085595
0.769125705517641
0.8742698084788044
1.0671073412829437
0.8881609030466209
1.0182313137370658
1.0906027076786162
1.103397051179382
1.2134811864113402
1.1941168305182726
0.44308671552888773
0.32951775589344245
0.2521278694213471
0.12550642094195352
0.08350048298265327
0.06926939958757601
0.06021230380219515
0.11036582834968933
0.11459510096480229
0.11343226542811921
0.10700908587799772
0.11692083081495126
0.12242555528518838
0.09843608855206676
0.10855441212138423
0.10969310433950517
0.13005748014213073
0.38202591636952243
0.8914220247505218
0.7320796689617721
0.8743566904090375
0.793560185258093
0.7194268284345607
0.9976630097568362
0.9133052491576769
0.7695845760571305
0.40504873585101514
0.39845700518565663
0.4718505309412118
0.3786741820433265
0.31637952677895614
0.273887707820682
0.2068263841978902
0.18987657513957498
0.15063125055767407
0.13205323579746234
0.11573597873655754
0.10374546275809833
0.10938308372693524
0.16611610841034471
0.18277440500695077
0.15916681863184856
0.21897965476373066
0.2197658703637091
0.20622508060359984
0.21898580846209295
0.18068244213313556
0.46762611515810615
0.5842342686980941
0.5615058244106308
0.3980445030584958
0.17772369190642595
0.16949437930338712
0.2067575269958652
0.19018083103629604
0.11200013417841866
0.22576644705353033
0.3595808987235635
0.5539051234229498
0.5670307725180951
0.728167402834721
0.6848072996002885
0.30819409132080083
0.2684354075243641
0.22640142699130114
0.340490279701797
0.5842342686980941
0.8482644371525947
0.6519005065951663
0.4949318132128624
0.41959659759625045
0.3190282408004973
0.283047132383638
0.246813299590228
0.34347614641095925
0.33153206289135134
0.3796124561465352
0.6348458865159664
0.6931594991835174
0.6781911177900376
0.5253024969725785
0.43488310549797454
0.4362992092521049
0.5092443153431501
0.5646969441925884
0.4784806665826667
0.5046803377365777
0.6360555719365449
0.8029969038848574
0.6174924761996526
0.5871126710838904
0.5803273559256574
0.5527615711793566
0.5769674863190088
0.6726715646955446
0.7402421743707999
0.551287208884178
0.5701596418866514
0.5233676406280423
0.9010746517326194
1.1053859389624316
0.9281253753320494
0.8786779424192286
0.7247554270246365
0.7501919020573432
0.8734448456561862
1.1459016715654666
0.8131429764853448
0.6511745300234313
0.48135270562270566
0.5628663926679842
0.5933862936561723
0.8068544310619179
0.8423535587072657
0.6467588377498468
0.6787052588050745
0.785502886604365
0.7172714849909992
0.7483751801032908
0.7089423078461563
0.6413608379023553
0.42087813278607356
0.6217680862048677
0.8389271020591125
0.6823697076210541
0.41981631578606704
0.4109495562382094
0.7292868333947806
0.8311882959807164
0.9459542573367076
0.7377378108169353
0.7387489325669445
0.7140180622205082
0.48553947115125456
0.6158289305164345
0.624201074716255
0.693575997382725
0.869969511824567
0.7294443600998511
0.6839736961531205
0.5399110440654086
0.7725137611687413
0.8887656279566776
0.7298156729928521
0.6054859555863601
0.47219954191372676
0.5847599597831757
1.0091060253770354
0.8691790633602072
1.0606585634761043
0.846201519839368
0.8603732287125975
0.8045911128894633
0.809213246629766
0.7453398688607145
0.8000399270471579
0.6521053125583636
0.9478182534897399
1.1660642873668454
1.78295472839185
1.3010662197641585
1.0131604237574958
0.8739331243264347
1.0036739997848687
0.9893034173360358
0.9411731941597221
0.7373542023879418
0.547263097979109
0.4569278829868009
0.6322893918873338
0.5936854202698115
0.492136642646678
0.46582246615569517
0.4799644885359074
0.5956210137734891
0.6703395414558508
0.5265377798272721
0.5433532981485487
0.5483840489649305
0.390338693735721
0.6469201062436618
0.7415656728642009
0.7235211582960306
0.5202036727390055
0.46149760735284723
0.5063224042070925
0.47590580313684744
0.3413958244677393
0.37299384033431676
0.3873234722932196
0.393443956863008
0.2747497366456456
0.36355473041073233
0.4363871432282102
0.5143110131185892
0.5682563122639948
0.5954630559185274
0.6942611475729689
0.8172776261922429
0.8620346799668239
1.0359065202142252
0.8092474030356444
0.7282011504422992
0.780725191328984
1.054305606470449
1.119903507924187
0.9458591005065193
1.056013522757305
0.915072038412145
0.8203292150036751
1.028354309207571
1.1264087588630844
0.5304780114836909
0.9165892463009074
0.8273526653587273
1.2977445247742856
1.3420755584655886
0.8823325639786656
1.3506347794507876
1.1618536203815535
0.9683537920056854
0.9845074053104569
0.6797773502145367
0.5217373489188594
0.7687136303347493
0.7682374233223915
0.7866846524071414
0.8330372842875708
0.9281253753320494
0.659296842417696
0.6137130692985165
0.7029477080726085
0.48157618682699954
0.6217114915678572
0.5650706845467851
1.0400996206590245
0.7116067520425479
0.736226188191809
1.1249220376817441
1.325855017307206
0.9235599721206239
0.536488899396346
0.7068681779527566
0.6963548788062007
0.8457806476991543
0.6455314899230215
0.8581722669121178
0.8754544453178549
0.9636519723575969
0.9040815742742331
0.7901900493503919
0.9124394225719171
1.0574738889370234
1.098365161232414
0.9990404432569715
0.8200089313950807
0.7729424050211633
0.848225987889545
0.9206795732777362
1.020961281985315
1.10997427985794
1.1184879304294626
1.4209605828302614
1.2544351552458484
1.1227864087307955
0.7628919950210514
0.8898603457472605
1.1264412440475293
1.0894296136829174
1.0416510887453216
1.093559867706443
0.6156145542470242
0.8099967862685089
0.73155769293263
0.6294445598300225
0.7355836455364746
0.8823325639786651
0.989619146167053
1.3608888110749204
1.2326671189480474
1.113830311531111
1.1334154257340996
1.1148026293244753
0.9748209264155425
0.9990796547255976
1.0823238138453737
1.0271029799221654
1.1229233961080272
1.377945636523875
0.7432513778745516
0.7848295487659145
1.4158550675760122
1.1212213223553147
1.1563093969074887
1.156314268926172
1.067443401242593
1.1654804600958248
1.301972757384795
1.3402831445765009
1.3025137899009909
1.2467712522599175
0.901074651732619
1.144838451824785
1.126784433018675
0.900106060746728
0.8831892749417081
0.8581722669121178
0.8864778633158872
0.8348322875057849
1.0125397677116328
1.2495123825100378
1.0589184875917244
0.6515642269400179
0.4245936816044894
0.2988369526655909
0.14971423087832736
0.08898341745855817
0.08258335834633129
0.06888293264267412
0.10325180773975313
0.12361802998429681
0.12171441953470537
0.11210548269158364
0.10575857084443542
0.10404132775415456
0.09792197396818755
0.06060066038506009
0.08721864993342697
0.21045299785433083
0.7752930208523197
0.4621132741594115
0.6007051834846829
0.5285686653743447
0.486415502819622
0.7007551828612983
0.7489488509253477
1.0400996206590245
0.7687136303347493
0.8378337018226177
0.7830316110440083
0.8856723512484503
0.5588561289741902
0.36722663192875393
0.18030827469917518
0.19937201995706613
0.14399771468993433
0.05666090650585901
0.06462762564477983
0.0915103103266994
0.07745832992073597
0.06093424645920711
0.06460349999796533
0.11591408483109458
0.13930530148830703
0.16128840428850108
0.17565173082829413
0.20039578099350597
0.17225572127446181
0.15285421560353074
0.5071222279464667
0.9042498811387549
0.9148366372784242
0.7593737209377368
0.5864534290069163
0.5072853904491341
0.36506503163903387
0.26159252019139245
0.2136385925146383
0.18908036858381794
0.14641888039871734
0.16963147349362642
0.17142232372224156
0.1613367501333904
0.11233963428744971
0.15084107290507767
0.1621140225118081
0.13699586228694427
0.1355641652572982
0.09414415457711806
0.11889160492126497
0.1232544004640842
0.20199414705772048
0.30249211902471856
0.20857187700615598
0.3369778344395306
0.32759766588735345
0.31514603883401565
0.37072715999507994
0.6212973538326136
0.6361189310264356
0.7977890457084305
0.8159274929855199
1.1258247054812311
1.2116180759275401
1.2984428014417733
1.04883295293603
0.5014661684717061
0.29072349718694923
0.36180757086039933
0.366802874038015
0.3742154723515105
0.36190795936371745
0.3533013864295459
0.342510162260104
0.4159484638271183
0.3979581794664778
0.4458968084191732
0.3699971631073148
0.41837689610402046
0.4684127171963913
0.5926392899859537
0.5094320625780322
0.6048384298134083
0.4591823373253857
0.6061642017481573
0.6325315527090114
0.6615402748435435
0.77162017973807
0.5696012098122228
0.8185521408335076
0.7403036517635896
0.7249437013824293
0.8005342102038179
1.0296013167383267
1.0574127672925921
0.8159363548691089
0.7527454220612367
0.62207120009877
0.5030890781155788
0.9872932977134672
1.143033528458815
1.1815948573007329
1.0006877828876413
0.9125542031522043
1.1330620223392964
1.167231106797628
1.3432670725320153
1.3036542456100098
1.0757896025224405
1.0897331653001678
0.9055001802630583
1.091950139361938
1.3245588554476766
1.1545942473175628
0.96904351149245
0.5394301730792799
0.571039590330419
0.6688706596650681
0.7292441684833931
0.7219261203538808
0.7830128372233064
0.5892736005133872
0.7725120004926863
0.8534836545604161
1.0230495362135346
1.0724030107936942
1.4299762061176424
1.3935185808105994
1.0669921145025991
1.077125576568048
1.1065143994926643
1.3077755561973747
1.268209332859866
1.0231657297411778
1.2340827343626797
1.646025911902656
1.4638186792123202
0.9645798943405389
1.224789123679986
1.1210565568465953
1.255883449961284
0.8577784059630221
0.6622661785325218
0.9217637394271734
0.9770517607499661
0.9821390347744638
0.7101517098000352
0.5062808079765486
0.6356481050562204
0.645972197979966
0.543000821620564
0.4942558328774149
0.48286853313960426
0.4855559946572892
0.47992403563689295
0.6178082146091182
0.6581583160606586
0.6529566203286026
0.5453669736046718
0.58866132944685
0.6821447333525573
0.6931591478549384
0.8327321139369666
0.799362259895464
0.4862336258181275
0.5446526631196436
0.5215115965855823
0.5235857466737827
0.5931438230619331
0.752555388161221
0.8429746441292744
0.9121460717693702
0.8984909544622552
0.8173178564834432
0.8923071583919626
1.101485936108815
0.8022388210048312
0.6601115723010015
0.6228185597155181
0.7883760222891194
0.6797773502145367
0.5217373489188594
0.9948487394791601
1.103042149981027
1.0888882009109535
1.2486505090830802
1.1102385876362313
1.0275753446182896
0.8348322875057849
1.0125397677116328
1.369497826752431
1.4284169463899297
1.547777532614031
1.328349341959816
1.2769932526103032
1.4107741433745755
1.3452985253374152
1.4294248300919161
0.8676298885640927
1.2054700682542447
0.9426504735894367
0.9740536989899262
0.7789290857610265
1.119419237696988
1.1346455327091785
1.4990755992495384
1.31120145006411
0.9616757877461433
0.9595930899102113
1.1188385242732226
1.113370847780175
1.3216400917602713
1.1048911514720503
0.6520530760946813
0.6747645547249117
0.7052232941357645
0.824191044316687
0.9374511054127571
0.8553129686279155
1.2289325942309386
0.924680690199558
1.0910894511799634
0.9629170969673722
0.7952579321678144
0.8831765371815966
0.8022840408757784
0.7564604000247162
0.8450023377828828
0.711693455291329
0.6411074868629673
0.6521484230936232
0.6909506636656966
0.6544467556417595
0.6473248446926518
0.837508126775938
0.989971757096379
1.0326353633912826
1.2926108295645085
0.7327538665542942
1.0415114935467868
1.081208184378247
1.1452253676322646
1.0124655847406023
1.0545698963565122
1.1574421423489714
1.3053047313717323
1.5710431169517798
1.3644448007077792
1.0106473962953626
1.1271458059838093
1.0135590802181689
1.0761651048529661
1.4080872889134055
1.347457518925909
1.3889578404714304
1.434685381846626
1.1963104802835232
1.2001642239309847
1.3654614076914644
1.5601019330760844
1.490647266562411
1.221632543875688
0.9994798934437575
1.0203245622496744
0.9699922638726355
0.8512529153007437
1.4447698364595012
1.3739700410512279
1.347046918564939
1.2349087097560838
1.2139356903224463
1.2970160900220642
0.9797304573475886
1.3426002026577102
0.8683289581264695
0.7822973012636215
1.2606206194172294
1.0592477149781083
0.8180226059739512
0.7573146173900857
0.6572795304821695
0.8045379248647491
0.38981816404238284
0.36779882227532584
0.16467596768538115
0.08054406593751748
0.05441775997900429
0.06706702438978457
0.10723911920984643
0.1275789356510833
0.12342724454088541
0.1341762019763027
0.17626675243884818
0.17745382978384006
0.18247887953430392
0.147407772339307
0.22662334498556552
0.37388095331293947
0.9268816198685959
0.8576175902545352
0.22884225078545142
0.37807571884433544
0.9072189513795316
0.7728528607732666
0.39587674425057406
0.34441076070566445
0.28283279957119983
0.25024647336244465
0.19937201995706613
0.16140888709573448
0.11163578815678571
0.11019839217678641
0.11573597873655754
0.07219451695419091
0.09991938459240417
0.09628424734278193
0.0993370837791061
0.09457103248721022
0.10026194347961198
0.10797934028700262
0.10413049962127043
0.16598511951254694
0.15916681863184856
0.12523079250914837
0.19146922087611748
0.23092687964076877
0.27018602454558277
0.3356349732359969
0.4697044549039304
1.0627591817530726
0.9859052564235757
0.40454479530499715
0.3024010034751779
0.21493796792786585
0.14671126062993808
0.12444063192052815
0.10776880828983694
0.07424757085331836
0.07843147311225465
0.07799296450499221
0.1333351565175253
0.07513823139120289
0.0680511295666923
0.0720598572861956
0.10127555067718208
0.11649157931858832
0.17127175866716646
0.19863146261656678
0.2677173172711273
0.30277814838823663
0.31385968365443595
0.18857434465341014
0.28635960659956233
0.38303063547842664
0.49474136509956096
0.7404479312553174
1.0751060335599678
1.0592477149781074
0.7177575246602159
0.5085925024073426
0.7341186008612761
0.62559595905246
0.803355257974673
0.5892042584510558
0.4847459612665806
0.3844010985401725
0.4375239329001935
0.31656396306801615
0.33840098702156773
0.4125462222823812
0.4834599283034595
0.5186730528810648
0.2971364324057839
0.29853799710373957
0.2635690425479037
0.32980431012664974
0.3646312958024378
0.3946615721431441
0.3995531334788383
0.4734278661040549
0.6808129980840567
0.8713250042369488
0.7482861170720545
0.7750128997707013
0.46999481817014
0.4917792828224372
0.559821508181269
0.6366291557016519
0.9785232243682632
0.9354982870451335
0.6887006812275229
0.4993212249019299
0.7645395856853795
0.9585736057950369
1.0015752637778543
0.9349217582577491
0.7113888123308697
0.7369136506621345
0.9073771270507298
1.0660035817780518
0.9410250816378607
0.7536254364965854
0.7388652225845529
0.7565155413575418
0.7725120004926863
0.9998144304708542
1.0035520718451745
0.8872548439244514
0.9002683028552927
0.7966437178426683
1.0420867736673969
1.346656704875959
1.5047325856032874
1.4126570303854116
0.8282332807235693
0.8607532902761619
0.9492394921392591
0.7889026128473705
0.6807854391765374
0.622529398317645
0.3786432692517603
0.5496974499409577
0.6173773923315751
0.46624349937780957
0.6048384298134083
0.5702985576255737
1.0128864233332278
1.3215011405140962
1.3382016948035778
1.8482685993418173
1.557698063440517
1.8743733959474262
1.8474004120374186
1.758409934929121
1.937753955883665
1.4976937837385311
1.0937908853036233
0.43785400754077614
0.502458301122161
0.8314644049078376
0.6646556012500703
0.39218711392342076
0.37063747221378746
0.3811024247506043
0.43000219861067585
0.3711532501954659
0.35562788078459756
0.3099307734615631
0.34584400848311364
0.3475432048541311
0.5115657173611491
0.495777947633118
0.418173595025815
0.35929466261145226
0.3062068559162806
0.24805774411816792
0.3606630743203381
0.44455510001362447
0.5561089182399768
0.5875267993353871
0.4851759979414136
0.561100645648968
0.5740186054919965
0.5787259161818347
0.5643602870571299
0.6397509664836261
0.6914521880775245
0.5203475402779747
0.5463223092732447
0.890414335551768
0.7730266767117355
0.6820479779479965
0.5130049953879154
0.5664595566680483
0.6213889250396112
0.7331619166063705
0.6272784616021888
0.5928054357359589
0.6197901753366782
0.8108490213653277
0.7678076074514274
0.9352479168673179
1.0199867692458358
0.7877717504206277
0.7844645405527362
1.115879312063713
1.1570677981234199
0.8927631511301111
0.8898603457472604
0.6925215388584481
0.5413228249100003
0.5096475017647766
0.9662589195079445
1.0503840402607065
0.9824820877446839
0.9071004886962211
1.048197149270663
1.1610586750891243
1.6104693104412062
1.2355144910578657
1.6568337391590289
1.2019082107866133
0.9639753168890525
1.0845285199572179
0.9379885295114225
1.138931226458613
0.7805556170710396
0.6615003877510247
0.41577742288841596
0.7473553492668505
0.9923167127177034
1.379397442939373
1.1399767949049089
1.0461745294926794
0.9639753168890525
0.6590818507162869
0.7603151445736006
0.7231886084200675
0.9359817641097392
0.881521741293788
0.9370501585563207
1.3554125171031421
1.769315158652248
1.8572596177098837
1.6080736466269623
1.3575699886563184
1.0714290003739655
0.7024009066952571
0.6923572540785544
0.6411197508207437
0.6372653643524816
0.5767813849406057
0.4282875075688316
0.4562472953218595
0.8000227057867056
0.8152309826116465
0.9665253726313675
0.9616757877461433
0.9595930899102113
1.17359376575963
1.113370847780175
1.0489324584166277
0.9546143053095371
0.9416580678355759
1.03044428019812
1.0555980068629536
1.095403801548364
0.9233585773368959
1.1152523486947181
1.0752923661947358
0.7516551285357663
0.9245329406026497
0.9052846719945556
0.9573990381527678
0.9298307962472699
1.0381562663990316
1.0158469666509307
1.4600380782292148
1.1977697649089671
1.0856837470404495
1.2776144787265555
1.253453826425794
1.3936409981536697
0.895349853048284
0.7116258218910217
0.7464668105521164
1.0425720702853738
1.29935540976368
1.5299398638646096
1.111898077918649
0.639522523690817
0.5252246397797471
0.29432578920556246
0.17214822588832207
0.14971423087832736
0.09265334291321024
0.04792131903231808
0.04778233379620743
0.0632337530388185
0.07152029129618039
0.07255235084180896
0.06917442798903002
0.08214020701827719
0.11570944258458205
0.09843608855206676
0.10995797871783156
0.12397398732329187
0.25027164050935996
0.7372271060041021
0.5920528231044914
0.4274812650862581
0.4249324030691696
0.3977847635479753
0.4824116946544912
0.587914914116304
0.3413958244677393
0.622586938037024
0.43001188804108614
0.3736743028748609
0.2887920048513848
0.23847146391639445
0.21099327239268692
0.1252937052985911
0.142777374929837
0.1306770183101369
0.15081114268188703
0.1418119162615263
0.07219451695419091
0.09991938459240417
0.11333264331181565
0.10257671728380344
0.09457103248721022
0.09523411275284827
0.10033197122346031
0.12142451082740652
0.13231388967479735
0.1159105994257461
0.12523079250914837
0.22853988626811933
0.20080193997590287
0.30565822118333347
0.4480933717534676
0.6278878942278515
0.9333384434708003
0.8923318264164938
0.4948911075830109
0.3156820883930995
0.15488395349800943
0.16694835388524099
0.23038348144132514
0.20877040895116006
0.17048914174044189
0.1565247486937929
0.12153947111056301
0.13074786306277678
0.13935221573408876
0.13953132783238478
0.14858572419348487
0.11927266875788382
0.16002505040883946
0.19811329926997467
0.23314599166016625
0.310841318102794
0.374433369606166
0.27109475645353087
0.3208984523056085
0.3272451145191962
0.31405859888894766
0.4094088640134916
0.37610070581864713
0.49012706916742665
0.6093995580104709
0.4607287460988928
0.5216921883465383
0.7628463955487909
0.7898616199094037
0.787121497531734
0.7149690325589283
0.5835475849801014
0.5260840549649395
0.3861765102071439
0.2635690425479037
0.39933966131566
0.41908233258272537
0.46659065099097485
0.49098206408641987
0.44481036853941147
0.4264996770970594
0.5566588771001761
0.7857933667061203
0.8526927968275563
0.7834025186380887
0.8054220376090162
0.7518163484033668
0.8599551937735761
0.7572211544582944
0.7279727130400112
0.5980218850352573
0.5782245388847039
0.5276245320014585
0.4766468823760875
0.49129881959117383
0.4957891763503906
0.5138250655154667
0.5005315277791953
0.4958627664832106
0.5233676406280423
0.8251069298684197
0.8484468068759394
0.9279659067901321
0.7410446911333792
0.6325315527090114
0.5879228209546973
0.6414601325749815
0.41460251697296363
0.3153298896903386
0.4327892483651796
0.42189283880044204
0.36059469135688527
0.9751853684286634
1.1386618839894136
1.3539725091542998
1.0474595646963158
1.1007226419104852
1.1892057171235721
0.8036043539287955
0.7854485737213112
0.9102984418031355
1.2076323831890223
1.240347345892085
1.3515098313896925
1.0390978004542264
0.9470243668314673
1.0970364896776192
0.8383685647320444
0.5030890781155788
0.80998297884205
0.8002864559148561
0.9303620549554137
0.9463400352135538
0.6489694594946923
0.48135270562270566
0.624201074716255
0.693575997382725
1.0035217687723947
0.9707755076700788
0.8860529987464858
0.7335097540117071
1.2798255816093607
0.5858898908057771
0.692000440987561
0.8020323213189269
0.9416580678355767
0.8340442993569605
0.8268294703419142
0.6594821626417745
0.6485913302948442
0.7876099004993153
0.8386423297531914
0.7454340527423603
0.5966282149117724
0.5727742132221226
0.5258687695757857
0.53036509963222
0.5792200265333265
0.6726317754147656
0.5055717210138801
0.6018804288699526
0.3915514270232381
0.3984123322124311
0.5764429646946126
0.37152040981942996
0.28758829430963956
0.40415930375760817
0.4283235025740465
0.5588180784662362
0.6096771920471165
0.9650310206525922
0.8586470937633284
0.714286518898458
0.6519462187588647
0.6125798787257183
0.6972402646602193
0.654979494537825
0.6076235837106078
0.4084438900972311
0.5359946669108537
0.39341204901301247
0.5848343962708491
0.5240792467622217
0.6497580231338252
0.5542190376067619
0.4238381491575754
0.7569913844109345
0.8553728135745321
0.7635855701242585
0.7123301534910217
0.7694602270314956
0.7913538260014069
0.9967056693185737
1.1465650483386745
1.3371125345815051
1.2668309706877983
1.1860861763398878
1.0273167862485493
1.0530749726978064
0.8309906389152092
0.8870412641252976
0.7138042850789051
0.5924110772176859
0.6434303177897233
0.7892837497014437
1.0658049699452707
0.9546143053095371
1.2907559186573772
1.4204635928473444
1.2517871734207584
1.53113948925925
1.7569452290625542
1.5601019330760844
1.845486596654338
1.4701225715615047
1.1906159406781243
0.9983949734972034
1.0031897779141234
0.8321238081690147
0.6554351751736585
0.6330780519941053
0.5824751143251619
0.675011600451075
0.5425494602364879
0.4583255135496304
0.801892792822607
0.906003772423807
0.8086820535494907
0.8227228756504468
0.9783175228708954
1.0393016273249733
1.1654804600958248
1.2185736689431172
0.5858898908057771
0.9512689469539676
1.1308655735452329
0.9516779302250836
1.3764203072433576
1.217526130758754
0.7989022839907011
0.819285149165721
1.0655670098057537
1.160647648380646
1.3551038982734462
1.1590468073660918
1.3684370628580842
0.7591168440059383
0.759494296083261
0.7707850102976327
0.7575684547123971
0.7171639580332484
0.42408228541068954
0.8049942648504845
1.315312238148845
1.0735319172538613
1.0774767117984687
1.240347345892084
1.1053859389624316
1.1239321985570403
0.8786779424192286
0.7247554270246365
0.887857288355667
1.1168619299071412
0.9198415197715569
1.116861929907141
1.0865926938245885
1.0522942438042113
1.1302237024461588
1.1466869027892606
1.4254209819548864
1.2957065653249662
0.8104364194225777
0.6317265460928341
0.5806876891737711
0.5879228209546973
0.5040425086626665
0.492044018292608
0.31092094941979037
0.12382724227755855
0.06528102096762159
0.07502082398417304
0.09526716574191836
0.0949618653470451
0.16266198282255195
0.17343920116854097
0.20077800232997586
0.21814657269333568
0.22404138518740319
0.16040000848689406
0.11511839218214415
0.1785149870241822
0.2990606189568361
0.39033106533361045
0.45706310458052696
0.4875406269473788
0.5659603468793813
0.4951752652755686
0.4213513289936862
0.3283612076584721
0.27551641926125103
0.2460796732661171
0.22862887490828634
0.23358386593427405
0.21300728897698018
0.18998190821782604
0.17918401553059798
0.1522933348515706
0.21262548098436146
0.1539096152006071
0.166054005245128
0.13417147658429235
0.1258994136225727
0.08368542271392942
0.08925847096911113
0.08822675241273492
0.08711316514097839
0.08338177047767209
0.1351392716690459
0.15588028114110347
0.18344672081125593
0.23486640686201646
0.3037428872061221
0.3408369228872415
0.4453392696024882
0.8591959909688094
1.1007610362423963
0.911604993400474
0.32401542899025726
0.23170720445525933
0.2001591781560749
0.19220667737975827
0.19380430667042706
0.18751481793638286
0.1233254537578797
0.1113576212428004
0.11934754436349727
0.1221275991577198
0.11906787160190813
0.1293058615944233
0.10494656903501924
0.12106885626528707
0.12967830537202119
0.1505769283633296
0.19681231482722733
0.18156066392079567
0.20387449186059697
0.20221952516418382
0.31483475100444935
0.368250019473131
0.4063441863164342
0.383902153929394
0.3621150148096663
0.38873470731231036
0.4436923682968665
0.4284265226582024
0.48379876900267765
0.6226381086746743
0.7687165162935652
0.7343140049573367
0.7358784858500323
0.5258665568245114
0.566812746196124
0.31719217677815686
0.33377788488222415
0.34436375957126025
0.3488518225946677
0.3548962076552292
0.4594107098357844
0.430007234575336
0.353343340092685
0.14774292472613193
0.4826176144880954
0.4629399236375633
0.5311915508844435
0.6206396357740019
0.6709554181272682
0.41138477882814817
0.29960971170720163
0.6300415702484718
0.5850606500441572
0.5355002105400197
0.5523701822596575
0.8551724814066657
0.9127961081825056
0.9661367397113968
0.7213863229541416
0.4431985306206975
1.0119724482726191
1.260107437281983
0.9818344551787801
1.0086425364129883
0.6676789407861372
0.5869737269177201
0.5526569144472637
0.5628401685486901
0.5099285776305991
0.6604067471271711
0.6672904310264948
0.6338474599186817
1.0636096353511246
1.1436262387817286
1.1525047797589925
0.9754320534836438
1.0880295374763063
0.9448651113027032
0.9988905982869846
1.1118686900786154
0.7004100291229272
0.7106394684954758
0.6187453289081689
0.5385004264991702
0.5917906425034781
0.6731806632978006
0.6932686408114846
0.6278999110730074
0.7915234267060947
0.7807041813587833
0.8517524432537208
0.8077418025881514
0.8183943210540123
0.7180175073766961
0.6573791667581635
0.4372142288108659
0.6406852522739775
0.6986567859957529
0.8412252683620679
0.8102314628927255
0.7226397060593661
0.712614602319166
1.1078929098448784
1.578373412094011
1.4627362934726562
1.8424571378726349
1.2909944487358063
1.3838128208649318
1.3881499086204772
1.0189119070856467
0.9396972481756856
1.147906184526645
0.8394781565028097
0.8359981171281636
0.651998201526905
0.734531163152218
0.5296659969935357
0.5327896625982063
0.44646047637506237
0.34082300367852675
0.3759260492260404
0.3024156185633111
0.3141360477210206
0.3458982348337976
0.3951798934003486
0.44695059638923706
0.47858928428064573
0.4398409802087632
0.4754965815895863
0.5323024684290651
0.5797219288100534
0.5002730564140637
0.5191118325505291
0.4727198869004386
0.5588180784662362
0.513763680386686
0.49239266313368985
0.5953322543453868
0.5586432069298042
0.5673937912471726
0.7615400122028786
1.1040943626632633
1.3180092827130112
1.6113408908546836
1.7593288763724917
1.3357288603404294
1.1544400750683559
0.811195554194352
1.0314388656647007
1.0741452753153193
0.9627668226646434
0.8054602473194189
1.3485384434698193
1.521678820393175
1.9501842278695507
1.8830326379047542
1.4704292441876154
1.2261467980927192
1.090585300196758
0.9977715754679746
0.6629625903987642
1.199019584426774
1.1447579829295076
0.8932338808233863
1.058331252710639
1.0123040408963035
1.0488472094106873
1.013872277492695
0.5304780114836909
0.6969604906077416
0.7057869410231846
0.8914719577617073
0.9118074067406796
0.43504529656911384
0.3829445917231473
0.5877894411337734
0.5068874487263969
0.7516789998268175
0.8823325639786651
1.0907120762796134
1.0103627378672677
1.1090239435608251
1.129251627749839
1.2258830717515046
0.5419454233720737
0.5203427734127227
0.5330951156555962
0.5619106675029858
0.5453441611488822
0.9758829824093918
1.1198516358642738
1.540080093089915
1.5118937903167473
1.3010196232408953
1.129416802528531
1.1355286202776618
1.2419353650139417
0.9249061064148428
0.8668251506175707
0.8968962404258214
0.8130643381110167
0.9333384434708003
0.7630592310117408
0.5451732116183313
0.5863165401982019
1.0149306498322914
1.0120992574998875
0.8052383405840597
0.8540623759284444
0.8836941508703914
0.9179756352076989
0.7544991086731411
0.9176263699542632
0.9322226536716733
1.03708583004113
1.1554072140435936
1.2478870785920755
1.3844668707296626
1.1504331757295176
1.4991640030457343
1.170464153605621
0.8731722420124809
1.5188697315478823
1.5338955411240556
1.2024072240843033
1.3491402519532185
1.095403801548364
1.3564976775793087
1.2236952317185341
1.4736256186845647
1.333040074311181
1.0581414525628887
0.984673070253271
0.976179036263631
0.7885003208717087
0.9959019771770931
1.0954680909327956
0.9815100486235968
0.558898089837979
0.39310293573788335
0.38196661267954435
0.17114617591561712
0.08350048298265327
0.0783736670338397
0.06581372311497828
0.06969542265454118
0.08742795625204511
0.14043496609469708
0.14902273498978802
0.16462543327311518
0.12575687358112003
0.11495929585730237
0.12718515595921448
0.13104448351071593
0.3905388999252792
0.511156544046834
0.42309976200209093
0.3281934925265308
0.33993402518980376
0.3399505287113733
0.3481209209741196
0.4467053036234081
0.5415771784817746
0.5133329208149444
0.37746838296458957
0.4036075681770717
0.3770028016983963
0.3098062897234884
0.22767338666233466
0.20502650950644632
0.13347627303356968
0.11205719657421259
0.11092127485590242
0.10407621864985132
0.0565268878063201
0.13964238282241573
0.07745832992073597
0.06093424645920711
0.06460349999796533
0.11591408483109458
0.15366399236043968
0.18563293234539122
0.23771640077584455
0.26865807643118733
0.27246600835086754
0.26031733961809156
0.4518202361930634
0.9470796764434375
0.7934399356099572
0.6722426442374082
0.4874950380137451
0.4775340037102578
0.2679477294136991
0.26634494446706547
0.17683459830357265
0.1753917037405349
0.1369278118881245
0.1490831782711834
0.11232106298729867
0.07424757085331836
0.07843147311225465
0.07799296450499221
0.11200013417841866
0.10957482720888942
0.09537943466486382
0.159053016756743
0.20302279205497137
0.21695205191701147
0.29031203439648595
0.42508356369080746
0.496275679631659
0.4969948266515506
0.5904228782756581
0.5103579567035929
0.516482045858321
0.6159623107861062
0.6294315816863415
0.6202100626143014
0.9249805690442419
1.5084727743307802
1.5054654589998837
1.0039126312004107
0.5748704842179765
0.2612660259447722
0.24511176390111844
0.2776996887524795
0.2880454029997375
0.29393698627316706
0.251968685603177
0.21557390368206705
0.2366800919013779
0.3030213784307343
0.4658922412925176
0.5722030286414632
0.6187009125085956
0.6250397990180397
0.9224006241891624
1.144533161884939
1.4928494574716369
1.1341676899741246
0.9146777014864016
0.7416008870247783
0.6734346418464603
0.6708998067516565
0.6379246453295251
0.6265934010820395
0.6782626726287968
0.49588985752082343
0.9276292670059344
0.8824124790411633
1.083236349905356
0.9831560108046097
0.5859693444070384
0.5317085916322467
0.6891826124170842
1.013908926325068
1.2574562091236938
1.023840326418084
0.7290982530438678
0.48372835561516414
0.5804308615155392
0.5866387888551002
0.4457983918579758
0.3699971631073148
0.48007299909666373
0.5388164512319156
0.7070711691439923
1.049655347977915
0.8611695840791027
0.8357861094056381
1.0880551691166547
0.922188244467437
0.835840151425615
1.0727579094352961
0.9778718599626088
0.8486151282404317
0.5122503346849027
0.47986960493664
0.6113587661096294
0.6173773923315751
0.48714322730893195
0.7484244606161369
0.7102121602041085
1.1471814765430302
1.0940709656541638
1.0390108195262173
1.0893899875478827
0.9917513430767226
1.02031426128153
0.8479807106081866
1.0166468742967245
1.2179658194579688
1.1118334206185407
0.7868019096841015
0.8321242644947944
0.5903250666100054
0.5622173581474075
0.4055219690268653
0.32226226143317543
0.29232819522863174
0.3186737025496195
0.3154298015031402
0.3647577281455926
0.2684410169685343
0.23755935674959544
0.23193726114239255
0.32541401847593
0.455084448758544
0.33071044161936364
0.3840239963487746
0.4974883485867441
0.536584051862601
0.5335886728616143
0.4206835056256538
0.326416284466227
0.2723598919234265
0.22571446760782396
0.4036740997751259
0.42648208709267466
0.5266852790552604
0.5588584831374811
0.5885453772252471
0.5332301552411581
0.33951570947252846
0.6726374853380004
0.7649006234865663
0.6085971816891473
0.5269159830477583
0.390338693735721
0.8125569908571795
0.906488414386245
0.9166984970282117
0.9556164647820746
1.2292577039973027
1.0249593991624228
1.2921676439907641
1.2921676439907643
1.5251772099672345
1.5468022121047877
1.3573396362013104
1.0466416937046776
0.5135379211479572
0.38312452910042444
0.5332958591014911
0.46822282619506755
0.5615343398881075
0.6740522754737334
1.014329017265031
0.8257750975795473
0.6516721309953177
0.6143181446247874
0.5558181948025571
0.34070796499644485
0.4056542383581591
0.4252700031971264
0.5222584861542461
0.9115895806150732
0.9294290381860274
0.7486567566925997
0.48380421924406936
0.5068127347038803
0.4903461301090428
0.4872730099936073
0.4402528257072892
0.3902793890442007
0.5141068200275395
0.6194217897967327
0.6943319543872015
0.6940232369140898
0.6460993056262531
0.7481374875557791
0.8918825850158454
0.8513988779603615
0.8978627706112906
0.9016279765397437
0.5947251869583088
0.9009626529813768
0.9708065901819982
1.4392427030216175
1.3486198825664568
1.009845537437733
1.136446491155866
1.0724030107936942
1.2116180759275426
1.2223812983790492
1.3639268663309163
1.147257827829443
0.8937781388210256
0.7789290857610285
1.1317304126020673
1.2615199165488147
0.7896950053551368
0.7979661845474006
0.9403229307374709
1.1589639750623402
1.7651482748695395
1.7513271011879097
1.5970900725404436
1.6720354804732949
1.5336876842952438
1.4523562981226867
1.4142075912871266
1.0004702589533023
0.7741105765943946
0.8987283975238106
0.7640984789143183
0.702080924803087
0.6811963952824893
0.65920888638913
0.7326217254140074
0.9260854391878435
0.8673675364362975
0.8789426278003462
0.5517507605404653
0.5979274068720872
0.47441918258869376
0.6164331335785382
0.8688273860339932
0.7354349206183631
0.7205823100038434
0.5059693867187014
0.6489790342453472
0.32113032021189514
0.1896792889000736
0.15441542593128765
0.12038648558793538
0.0744905955830544
0.12253370016629395
0.28261864725489094
0.33401845426616805
0.3681126161526779
0.47803599767648325
0.6319685370116183
1.0022586299133025
0.905249490735653
0.6722426442374082
0.4102178236863652
0.3860653539050815
0.2245205771260754
0.2740467651467386
0.2656537145193424
0.23770603135304588
0.2596762624050772
0.1911246078174975
0.11547203731019419
0.09817601948729245
0.0960457167469314
0.07079742411235816
0.06082467390512721
0.07109720602144055
0.08360371702115099
0.10472207479008155
0.2298424485878623
0.23176361129037934
0.301438334800604
0.5986528950908975
1.4702234030340566
0.7039152274367614
0.5752399279211587
0.30244644845963115
0.556834941199057
0.6326652679341785
0.7392441042395912
0.7270959388513245
0.7491821809553776
0.8198176905470921
0.8978344385037709
0.8831892749417081
0.9074522051892441
0.7076540367343208
0.9984088779817656
0.8972827396657951
0.7332355751067673
0.7052232941357645
0.9449111825230682
1.4583948905771633
1.4064632676051614
1.1872957049239883
0.9065963785715953
1.188297642258735
0.9667806980420268
0.7740393962383117
0.5413056966596573
0.45762032787396817
0.33524913203808454
0.4015051379342183
0.46993703479491944
0.6003002251876638
0.5236897156222058
0.4675316012061538
0.5174863707585432
0.5718614111131105
0.6469748314588456
0.6593735707361871
0.6006099877814876
0.5665941309727764
0.5242738318060766
0.7097187946918161
0.9440683888367684
0.9244257298293692
0.8879306160968219
0.7681397733522084
0.8506930248279753
0.811195554194352
1.014191146849696
0.9586158157371001
0.871485681164683
0.47289160386114104
0.38746352921408933
0.4151641371621211
0.4588111588721842
0.6132243894962655
0.6501628406625511
0.5925848970584824
0.571520037258043
0.7272888803430028
1.02694400874342
1.0854915899731026
0.8387871594186711
0.9368065260193267
0.6300415702484726
1.1210565568465958
0.972340030953935
0.7401281078166433
0.9773493058016938
1.0140402531267876
0.6823697076210541
0.7891269653615155
0.7092035079736481
0.6287622092999697
0.6272784616021949
0.7067468505329383
0.6488699190133798
0.46020294092598313
0.33779332456715494
0.2765188673872947
0.2935836854498952
0.3385466130376132
0.3320774047776007
0.38562351721255167
0.3861765102071439
0.35134674240699254
0.25498553930944284
0.34404106580079924
0.3172699353666862
0.2660847781660604
0.39309282938592144
0.3832009888484553
0.3206789273175021
0.39276233580318276
0.3125642390574456
0.3276495900401126
0.34331340927805104
0.3776842844987795
0.4560595968802297
0.39106183112713433
0.48261359092578177
0.37751057013232936
0.5605363376057141
0.7353766655953343
0.7439007048145594
1.015946651406812
0.9643247182830812
0.8619633297481002
0.6137893943339041
0.7390692821773145
0.7582282642177259
0.9161357792066016
0.786952003501748
1.0638149728695607
1.0850599303533366
1.0921414382827106
1.2043438751425053
1.2173905625524988
1.2482783569344666
1.161853620381552
0.9749732243842832
0.7950588278647374
1.4730943292271832
1.246314704746562
1.0425424177604705
1.1523969334683732
0.9316028524935333
1.0232781556430415
1.2073674603676805
0.8725647714128874
0.8416846683029073
0.9560436722414465
0.9483360406742288
0.9746872325687365
0.9164536052644173
1.2198156550076347
1.2224718205238456
1.2248361401167962
1.3310609919063443
1.3893713305347792
1.3893713305347792
1.32006871658049
1.5241603667872694
1.226499734704495
1.230589257986689
1.4258503212890692
1.169776599739109
0.7844645405527362
1.1442147785097387
1.4341191524083157
1.3488199966379226
0.8172514216538868
0.9707136714073755
0.9686330257131183
1.074974540419975
1.0026050998819391
1.1410393067345663
1.2236639691085656
1.6511206540181338
0.9436233234424222
0.955352685455925
1.4416346871385401
0.972340030953935
0.7646364154017733
0.8288312491624652
1.0396684411151835
1.08799465419104
1.2469556401798436
0.9856070188726617
1.050304304660471
1.1991828058924805
1.0545881336611265
0.9776735775951203
1.208077669688995
0.671328633009462
1.320971011444295
1.4144817888727883
1.3187669891946583
1.331967120368396
1.5438242822804977
1.1248976755333135
1.0781494501000015
1.3266392488603458
1.4435108730400006
1.2562103314137936
1.0249593991624228
1.3396886120214007
0.9219436874746026
1.2592686041714463
1.158212641415869
1.1788411670031944
1.446057914115883
1.2129112929068282
0.8675045810022645
1.3914418513962166
1.1654804600958297
0.8378391092087378
1.02376805712617
1.0182313137370658
1.269542100191833
1.2695421001918332
1.1596722979464005
1.3394308258240235
1.6319000235242933
1.1968785142447869
1.1770526901733138
0.980375902237023
1.2832541799484087
1.7514550240003548
1.9499882720107127
1.7464910971352592
1.1601459613294887
1.1046787525509592
0.8274880830101533
0.9206372552251758
0.7935978611041844
0.7031490344360972
0.46256319402880863
0.6218896297138158
0.786554281058669
0.6436334312652895
0.7002083421334707
0.4866501165086637
0.5498170558578734
0.6321732927666323
0.5640426227153784
0.5516597694009479
0.3811803972616501
0.4376443030750999
0.643683506635171
0.9115895806150732
1.0116639879218565
0.6655725785442616
0.64732361510959
0.5088587119972228
0.5073710549574203
0.49439048306667593
0.407473537076834
0.6599000888072425
0.6538865258135064
0.9541490655549592
0.9439558524937672
0.9615196598140275
0.7686300942079879
0.8918825850158454
0.8676298885640927
0.7218076037207348
0.5905439881699331
0.32401542899025726
0.23170720445525933
0.1614476120890834
0.08527704882144256
0.09127218866669119
0.08466024824122322
0.08212278875006608
0.07182158711375944
0.08517866241843648
0.1007686221680743
0.10167720176774636
0.09313156882640912
0.07171116137830098
0.05078473954223769
0.07474713368850834
0.18055780265329144
0.5380924870534575
0.6042936616326019
0.8606061071058319
0.7387298777178286
1.0768091750884852
0.8806126563180559
1.0426447744722003
0.7294158221375852
0.7096900922151892
0.5539173547944718
0.5061603707561287
0.279717849449214
0.27873277167781324
0.2853123150719081
0.2831195687110414
0.20990918725804472
0.16608184911178264
0.1643627340254581
0.19011574241528745
0.2263106827513308
0.22520406632500947
0.25882142513733986
0.21343218194912797
0.2684410169685343
0.2734313236889772
0.27450477554812674
0.32541401847593
0.44455510001362447
0.8602865277801341
0.8482644371525947
0.6515663854019892
0.3413366814418985
0.3127828793852008
0.366802874038015
0.3488092829012621
0.420949011042342
0.7653339697406213
0.5850314662850035
0.4652892594238729
0.3467190439562935
0.17166212692577676
0.16371419464028464
0.11559599328191852
0.19917069701755233
0.7616007554533665
0.522960393308941
0.46941079937702346
0.4102178236863652
0.3860653539050815
0.2056403463824995
0.09537943466486382
0.20302279205497137
0.27400450766108986
0.28191917044649445
0.3189876082939393
0.37140497469597333
0.3981754539756797
0.4362960825560307
0.4690792520545047
0.5080586867995106
0.48572349429720346
0.38643594904782247
0.7495805550000713
0.8712809728015601
0.9784811338754847
0.8913011900595245
0.809552964839541
0.8936126439791818
0.9598737961166443
0.934615260017507
1.0879180159198678
0.6604067471271711
0.6672904310264948
1.0228387972118669
0.895143247556318
1.4254285887794123
1.4107741433745764
1.4698907371464662
1.5710431169517798
1.142465928089475
1.0549505765464646
1.0220161159527659
1.001445429882914
1.0657271009694977
0.8938880977698653
0.9201225491789375
0.8976093812188798
1.373243338408599
1.419989170771296
1.2952787728085875
0.9240996863585845
0.6782755757472491
0.8470446194745718
0.9505809945735083
1.1826247919781667
1.0844859524432195
0.7594282884377368
0.9124394225719168
1.091757678317052
1.0479229099232064
1.0177313561471804
0.8584321888358851
0.9273210774300581
0.4953867852579513
0.7283083095785371
0.7459654870315738
0.8635654409080923
0.8644459409640332
0.6562375090273694
0.6618056970163562
0.36815392420371434
0.6986229395940431
0.7340642671059112
0.7031016378614754
0.5647886667842054
0.45046740691728065
0.5734549770194493
0.6959450149247676
0.6575801367388403
0.6797108054587415
0.52781388581966
0.5729968409855313
0.6644284818802966
0.9743743060656151
0.7469552308921404
0.6604942195648279
0.4541937327303573
0.3034905756820718
0.4597862038700827
0.5575892176609176
0.6278083014648627
0.6744189459134013
0.8005741170702673
0.8281926292113704
0.8751375200704272
1.137290975177912
1.352036863116365
1.387859151800916
1.3712113630754768
1.3350877630548321
1.3415312339111485
1.4107741433745755
1.4423683969011452
0.9509371746203689
0.9557137940850242
0.9449645060563349
1.5077410251922876
1.0559548830869236
0.8512565307587491
0.675011600451075
0.5763142085036395
0.4778234797276556
0.5126975173351807
0.3948880097395341
0.3481209209741196
0.4467053036234081
0.42626089534896433
0.5728660955181412
0.5119087090336017
0.5530412768445855
0.40744156078977894
0.5223284827983445
0.735977986270471
0.7622925250374379
0.6865433267366755
0.5396519353486152
0.39056013422043323
0.4121209825265815
0.6360340569565878
0.6391013181973191
0.7738076681541807
0.9862077284562722
0.9542051433515921
1.1223447239175983
1.3654614076914644
1.347457518925909
1.2748388689891008
0.9252037212089932
0.8512565307587491
0.865949673806411
1.0042066123621587
0.856232509478991
0.9336314922611979
0.788710630767915
0.8056214823710262
0.9471717581418796
0.8442011921128005
0.5768117529696156
0.8883278559002528
0.8497152666707378
1.0353288327227228
0.9801876763266392
0.7257214252642097
1.0112021038443029
1.091134842029287
0.7821547685927304
0.8294910402649651
0.8020323213189269
0.8221142851199971
0.5417124611788463
0.8031325603555665
0.9165892463009074
0.8273526653587273
1.2202858558667158
1.300054120728924
1.1508283751924366
0.8493735845654417
1.261497269903188
1.1890216217168408
1.1680931950517748
1.027909202859205
0.904936021160023
0.980375902237023
1.1944414807153845
0.4722437541740896
0.6679252289278831
0.8257382374997182
1.0668915143955413
1.0209616219610935
0.8533934520943357
1.1751328770165845
1.165691965825515
1.1420323125167868
1.1688595666910075
1.198770170032543
0.9943846599740604
1.0142011219071756
1.313952213233274
0.9087768036298758
1.1998027762496073
1.5518169517532616
0.8564417422369269
0.8100452383373841
0.7500641813021961
0.839487226234309
0.807424686328908
0.7451345304812239
0.8631113933565767
1.0141078647319266
1.0243712351744556
0.8348246756260941
1.1240622397053368
1.1508922534929589
1.211533922754445
0.6742476974437558
1.339213083207291
1.6525780384623228
1.4728153664900907
1.9476053739424293
1.4434227480392108
0.8995606537549083
0.9808233430258156
1.192231515548415
1.1477105231898543
0.7263804840279914
0.906003772423807
0.8086820535494907
0.8227228756504468
0.9783175228708954
1.1349008764297903
1.0232781556430415
0.8024814373978422
1.3080183394137685
1.2373240494621751
1.4280333808137473
1.1140272161413247
1.7240507708973656
1.246314704746562
0.7789290857610285
0.8739331243264347
0.9721415021716457
0.6629625903987642
1.1966934503127786
1.1039901898868028
1.1304874399550042
1.9248557569958031
2.1624622359106023
1.8364911914035593
1.7795574076984046
2.0188732156203475
1.6113408908546836
2.1451599997827677
1.9389260162894761
1.5154035999146316
1.6858464973986607
1.1436262387817286
1.0728903258039444
0.8715639314307068
0.6508513851291917
0.4051421063857426
0.34318074328321424
0.17845115507477585
0.09265334291321024
0.04792131903231808
0.04778233379620743
0.0632337530388185
0.07152029129618039
0.07255235084180896
0.06917442798903002
0.08214020701827719
0.10404132775415456
0.09792197396818755
0.06060066038506009
0.08721864993342697
0.14165402202560118
0.9814606729205209
0.7388346915534965
0.7972790901693797
0.7972790901693796
0.9555281731992967
1.087473303207567
0.9060413799971538
0.7320356927920457
1.149381979455778
0.6516243119982784
0.52242362209351
0.3028255307255201
0.2332312027657036
0.19680801317101254
0.16437980029988955
0.10372455357478999
0.09429980202460406
0.144228162733812
0.12234063208075956
0.20402236644080302
0.09426590831042285
0.07960498681787695
0.07888709790029604
0.06918367162293541
0.07464595869349269
0.07422335736116038
0.07875857823263972
0.09303447958562754
0.09143783949231123
0.09754322743973597
0.11722800815506199
0.12917640713077527
0.15275786371384012
0.17732993940369415
0.32450217268980003
0.22331670953264646
0.3934329913015571
1.241599897808895
0.8690698355658979
0.5894067754170692
0.4704216685200408
0.4103562710593012
0.3559976292849072
0.26356591230973
0.19212040987510048
0.14641888039871734
0.13482295534213232
0.14531605547352855
0.12534677137356645
0.1350757377139801
0.1333336492231893
0.10494656903501924
0.12106885626528707
0.12967830537202119
0.1599398964917004
0.14450401693927825
0.15998035067938154
0.22615256854305157
0.3042196650155455
0.3855156247084956
0.37598418744950385
0.342510162260104
0.3034905756820718
0.3798591657030714
0.5663032924662406
0.5141292638627989
0.520636114431092
0.5196595292952607
0.595654458076055
1.1658664649591768
1.2886235352103717
1.203897602161424
0.7630592310117408
0.4433790756023468
0.46042637225575
0.425725064180608
0.39493296627097957
0.32471713614630054
0.28746798487346703
0.2745860026865168
0.35624226179598445
0.37641240027554496
0.3688514381781463
0.5062559286008793
0.45395459696291596
0.5863232807148089
0.4969948266515506
0.5523701822596575
0.7580017553718305
0.7531884517495758
0.47268825162996875
0.3786432692517603
0.19730512478211917
0.3836833044462679
0.3646312958024378
0.3946615721431441
0.3995531334788383
0.49800926742011037
0.4466214851754781
0.6362032963613775
0.7421439327100159
0.8576844335743049
0.6491467312207169
0.6280271054242033
0.4369259648699792
0.627084365150161
0.7299712311805564
0.7408576386304493
0.6521053125583636
0.5390411322528392
0.5194572163623427
0.5519345831989606
0.49129881959117383
0.7849685854727766
0.6339480404491964
0.9143167475426839
0.7413582911451122
0.7307514407236763
1.022895437236763
1.144042876016694
0.9818344551787801
1.0086425364129883
0.7507435122419293
1.1202827200655796
1.0705754551443774
1.1065972962014332
1.1019445519583304
1.1653962322860338
0.9468425425816592
1.1736152238359676
1.0363197883962898
1.1951242529872341
1.2559269648854863
0.8996413613769695
0.8281926292113704
0.8695555835178594
0.9850351617503926
0.9104272295378846
1.2598044227460101
0.952432607364037
1.0409087011478566
0.5905044625822653
0.484897112644179
0.43846253119870776
0.4834379907969842
0.6391928415838413
0.4903461301090428
0.6177890339197084
0.5069230446804409
0.4810936469255914
0.48144848045448874
0.44594223873738986
0.37299384033431676
0.4045301462355553
0.3316363374463276
0.23755935674959544
0.24805774411816792
0.33319119555059734
0.445400189461361
0.41472455431344163
0.3193112152767378
0.2929121895878538
0.3811024247506043
0.4090222255443745
0.3711532501954659
0.35428986464193457
0.3099307734615631
0.34584400848311364
0.3475432048541311
0.48814947309388396
0.44478931162995156
0.5561089182399768
0.7190108297874691
0.6604701914179413
0.9093581150854703
1.0274308965325902
1.0253008742454925
1.1004442491997133
0.8980659984054731
0.4722437541740896
0.6679252289278831
0.8257382374997182
0.6795616365143039
1.1508604497803923
1.136127331540666
1.0158469666509307
1.4480305860646747
1.487519255142535
1.6785857687404262
1.2310754841370013
1.6145223745372936
1.5328234854553346
1.719249876446745
1.316712005187753
1.0735319172538613
1.1352679496442823
1.3762424319973496
1.1864042169132045
1.125458621229238
0.9369870138053988
0.854002374511709
1.2478365332675756
0.8130264664119465
0.962006670944375
1.0895855558161496
0.671328633009462
1.0704518865494161
1.4144817888727883
1.3775086294456258
1.6558321496576303
1.9526813783396775
1.3482908917335437
1.4670951603094773
1.5491879350170104
1.6401595263562814
1.679529789775894
1.5636307811639578
1.4954370119084621
1.5925905924634238
1.312132797442348
1.0356091623746462
0.9190406430626145
1.1037744659861084
0.906488414386245
0.6142278135812881
0.800544914104347
1.0433086385529222
1.0671942825156475
1.0243712351744556
0.8348246756260941
0.834832287505785
0.9509371746203691
0.8923564735062242
0.8463544400172854
1.4248482948492187
1.5336986029097537
1.255883449961284
0.9357525605423074
1.1776691618774573
1.2113552833591172
0.9133052491576769
0.9554386791871103
0.9985864008610937
0.628541221003499
0.8901664606280885
0.7786118184019234
0.9528286133328223
1.0234162489330727
1.023416248933073
0.8898603457472604
0.7369980655279939
0.4389058649186558
0.6386999967038831
1.0658049699452707
1.1382625688163066
1.0103627378672677
1.2292135256794359
1.2492025344194961
1.4678727880289164
1.1076800743662731
1.2977445247742831
1.285799915977911
1.285799915977911
1.1499544149637912
1.4461418255916094
1.2259940373929896
1.3264983432059625
1.256321399516497
1.2026701888930487
0.8193492623392932
1.045787693777285
0.839487226234307
0.9397990080338665
1.087909798963493
0.9513421394534965
1.1249220376817441
1.208723870095142
0.9271272941806017
0.6456972502517994
0.7048701687368859
0.7346070643361567
0.8797421030768396
0.8457225971983386
0.8458334638237172
0.8194089839348027
0.9121607658146645
1.2491080041066411
1.0396684411151835
1.1602207741735513
0.6208272432917488
0.4161620791718414
0.24242677413204913
0.1455655424807866
0.0744905955830544
0.06888293264267412
0.09864806387548072
0.11544172555646515
0.13815307890721917
0.14627519733407135
0.1309753817323681
0.12655014038027584
0.12847195036079953
0.11420272069654341
0.10969310433950517
0.13005748014213073
0.38202591636952243
0.4647674790959231
0.2922643675567858
0.2903489362462286
0.418173595025815
0.4086999694550645
0.4164755904545782
0.43404339142803483
0.279521054457352
0.26889572009842916
0.2607336175919462
0.22844368030800125
0.22559510088208307
0.19680801317101254
0.1878468609727082
0.18555636263880879
0.142777374929837
0.1306770183101369
0.15762524290687158
0.13755660617394197
0.09713242639435694
0.11518663682187898
0.10737803777288574
0.10570040477638555
0.09756325245102529
0.0971217945386112
0.10763648178932432
0.11298635739323093
0.0823060016875996
0.09542685319754997
0.21166385598184037
0.22398903969674794
0.5726395900285136
0.7616007554533665
0.8599909750291156
0.7817757288457344
0.6837039468154548
0.3975254129471937
0.351235674796967
0.1614765542695387
0.12940293794662056
0.1967948062610136
0.18510633952964026
0.18876147749085692
0.19076367618510692
0.19950159040609353
0.16483114591302744
0.1945699128622256
0.2047335801458735
0.22728884662698853
0.1627780158678523
0.20168548784218635
0.2074197936938536
0.19866499658613065
0.27513286795812747
0.4413157933954412
0.5819334176509574
0.41668432008143524
0.47010172236940834
0.6477780387616114
0.6431591237468846
0.6220211084019424
0.5107086907363595
0.661603574094624
0.9015461562049695
0.8198176905470921
0.9471696461629174
0.9189559607864739
0.7218076037207348
0.5451732116183313
0.49378152543998466
0.4799303180630447
0.5222812587557081
0.4730831147858434
0.42260147328610326
0.4103485002724282
0.45513629964000946
0.28916946505591484
0.43070651873885857
0.48450690488368253
0.4581466820458016
0.628994067900429
0.8737862334818436
1.2909223567131363
2.050300737814528
1.5298305049147924
0.8255097635124568
0.5927114893339782
0.6741331170169891
0.4358564261488216
0.5558104286273647
0.4824175230661486
0.3918473636255983
0.34199060703146483
0.8779886491139086
0.8495104620424121
0.9641391272774006
0.9402519271138557
1.0674969242248398
1.111658145488822
1.1939269623796582
1.4925371417930786
1.4644863276821631
1.050616283068314
0.7482661068484721
0.6660992986459937
0.7765766007971119
0.8144145669095699
0.6550468260793701
0.9796622067616302
0.9794579184690478
0.712996941131322
1.0149924318718146
0.9676850277367998
1.154252607978642
0.6956368769807304
0.725647596217307
0.7326217254140074
0.8528829078801081
0.8398936945569816
0.8350834376635692
0.9217637394271729
0.7660323096975954
0.8093332744336884
0.791767582529548
0.9382551533682086
1.2384290765557981
0.9968451479485227
1.0687203962749423
0.9954055382661864
0.8803446156956121
0.8328895136257436
1.2629423864329399
1.2544351552458484
0.9319708177743832
0.6984075316604754
0.7573146173900857
1.0272936116559979
0.9349076439637269
0.7388156278011659
0.7041657083632565
0.7614431533338716
0.5622173581474075
0.5449056907398004
0.5283512593467126
0.5235857466737827
0.6692476182084568
0.7524512372383197
0.5338150469229052
0.5156693491718088
0.5045287884009467
0.49239266313368985
0.5953322543453868
0.5586432069298042
0.5673937912471726
0.7022061953803674
0.6263983368648255
0.39341204901301247
0.5848343962708491
0.5880031881780869
0.6934118208807307
0.4298471111034184
0.3560733407716891
0.4308463231771853
0.7662875634640198
0.7935084776940877
0.6879530932679111
0.6475473800010331
0.6644876258202348
0.8633752559197617
0.7876421085974273
0.9600434299299355
0.6013303731607339
0.5063767736151613
0.523919903059208
0.643857717222969
0.9196507272228847
0.6411197508207437
0.6372653643524816
0.629496419796649
0.9304001395116192
0.8487660196066149
0.7964440774904421
0.7326252409444995
0.6085971816891473
0.5269159830477583
1.1509021630313807
1.4605455341975349
1.3183717417015879
0.7894817739345462
0.8282464440842023
1.0509297804913351
1.2599757107151695
1.1105984098392119
0.8159274929855199
0.9860002104047266
0.5926368807579159
0.4447484425461024
0.4070284721388678
0.46163458648911426
0.8847120155128345
0.5831145783011432
0.8994825594093565
1.0350114049129908
1.0272936116559979
0.895349853048284
0.7097342853744818
0.472755860188501
1.2340827343626797
1.3878818475763923
1.0978756248676353
0.991805866189843
0.835147721930364
0.7297802859647132
0.7043003676578453
0.6407596038352853
0.7100716024967263
0.9690269196033094
0.9403022639563071
0.8297613094641342
0.8048811068364369
0.6036277391872465
0.6147182334359851
0.5894103819219851
1.1812053855351863
0.7964976304138389
0.9480229872706505
0.9878281758014468
0.75241504253239
0.7287501218691619
0.8131968459971907
1.1902017819463862
1.0825658700442908
0.6374611647525963
0.5043943218120021
0.5990251371899448
0.7341186008612761
0.8136383904506134
0.8455572685445483
0.9555281731992967
0.75241504253239
0.8762442070507278
0.9308694784579516
1.1746880271176823
1.5398141329787172
1.236753252401958
1.0189119070856467
1.137311366362628
1.312011954926898
1.235253609182458
1.1087809259682502
1.5000211759429742
1.5811596075435008
1.5998763644238954
1.3195490749263443
1.0933701331049248
1.2223740037619206
1.4493866370210915
0.9807333914789791
0.9807333914789791
1.0808902059099295
1.1196797280466342
1.042325618398592
0.9537917523895867
0.8913293499406414
0.8633752559197617
1.0386842641516583
0.712996941131322
1.0000420104799308
0.9775829232437752
0.6572795304821695
0.7387489325669445
0.8063409280229084
0.527321739644864
0.6004786703512524
1.5278896857561435
1.6557551610319645
1.1632943094624495
0.6857744752707137
0.671651056084565
0.2992281876883327
0.3766585055424166
0.15064290868920568
0.08527704882144256
0.08798576722864754
0.0631418799481603
0.08331494249262456
0.0949618653470451
0.16266198282255195
0.226126211561193
0.23726548424357302
0.24638278811602357
0.22661820723015694
0.17665161471282123
0.13815579987732937
0.19995289799645094
0.4848007836950559
0.7475875719802577
0.7266056388847805
0.4871097639593634
0.7426965279994089
0.8753072603874296
0.6281623426445172
1.1183181901599442
0.9027310557809195
0.7990213078102509
0.5983497296158841
0.279717849449214
0.27873277167781324
0.23167647639952652
0.2344965558844848
0.17946295135815254
0.19502280199284708
0.1434873027616711
0.13312786784331146
0.120512136939097
0.10628173508371885
0.05748986927579973
0.05637420123354425
0.09762169555933208
0.10784618949945199
0.10413049962127043
0.1509432412915749
0.1741152109334353
0.18909155416355
0.23830014543314154
0.2746160429450716
0.34229895187976395
0.4302488088009534
0.5375114054184335
0.8567787894608443
1.1245988678069654
0.43303764505409303
0.30321280900565056
0.21516216831665883
0.17129623283172415
0.20013400309935483
0.12008202568240536
0.14641238118779537
0.12605860804974278
0.14753789252020486
0.1389617381497765
0.127906221364361
0.1253864275322843
0.12957066897228856
0.09733750617901865
0.15803708337695016
0.1252682770969409
0.12039217734345257
0.2735057676731139
0.27500864933654523
0.19341020663531694
0.3078316986361199
0.38873470731231036
0.4436923682968665
0.40710502957534517
0.48379876900267765
0.575557193267086
0.36815392420371434
0.5693309529126398
0.5660763693038406
0.4476079012266655
0.2951784905046397
0.2935836854498952
0.3387603227875563
0.3304840481389545
0.3502986269543348
0.257185934792101
0.21557390368206705
0.2366800919013779
0.3030213784307343
0.3367031596752103
0.3935242806892145
0.40350001746951436
0.4199292230054519
0.42682928725587044
0.42438889517820316
0.3403811874096634
0.34927980889502436
0.30702388322110663
0.257185934792101
0.3689063551144293
0.6194055777447224
0.9180541401689876
0.6414341139322147
0.8287187011560855
0.6112935632129496
0.4583255135496304
0.5636623733827089
0.591429208314817
0.790961953661925
0.990445039028784
1.4003333015432236
1.2355144910578657
1.364014692433502
1.2094781692471799
1.0210740907209883
1.160796290221307
0.7707413728527869
0.7377556651107758
0.792305999620726
0.9313480516454792
0.8375108306322359
0.735964677223444
0.5748731548711553
0.44080298778580396
0.5405724187417146
0.6092480596781955
0.6256516906758153
0.7008133649796046
0.6159957590831037
0.5980318064672364
0.8986482166955352
1.1575161109205518
1.19277716865451
0.7092311821795068
0.5979274068720872
0.47441918258869376
0.7250160216208904
0.7587686644543796
0.25718091454613584
0.3110613361965876
0.34331340927805104
0.49374516947816366
0.5444595318202547
0.5696012098122228
0.9915392785731554
0.8005265718006653
0.6766627350961113
0.8140566909963659
1.054980641254059
1.0210740907209883
1.5634721789084634
1.165691965825515
1.1606410571819172
1.1210565568465953
0.9158914552063804
0.4802316166442443
0.42151632421545165
0.3945803920412801
0.4510846524331325
0.5138054417848529
0.4676741290238301
0.49499712894524417
0.4872456670893282
0.43445834052418303
0.4510846524331325
0.5138054417848529
0.4676741290238301
0.43284981451188703
0.4130362646836755
0.33275414806788156
0.47385065311794244
0.5484173011671365
0.48956468251941593
0.4675316012061538
0.4130362646836755
0.5125787065119904
0.5083281283407975
0.6817571466357464
0.5742408784780689
0.4765508985905599
0.6329386782641306
0.6526555519090563
0.5601462989641334
0.645847804514176
0.6535473671093065
0.6335473388348613
0.6803398571509817
0.8857058954851396
0.6649283920973226
0.753801327201141
0.6013303731607339
0.5063767736151613
0.523919903059208
0.5561923767582921
1.1061789784583862
0.9844165186854121
0.9549932032715712
0.9739501533490162
1.0345687557879053
1.1902027627145055
1.3300603915606208
1.8050210792851646
1.8029093001165402
1.1694481888442185
1.3621886423068628
1.6110663798695777
1.444973417216487
1.7015783306768428
1.4959540663150612
1.2957065653249662
1.1494916383476101
0.7956585188257216
0.7956585188257216
0.8714752888220635
0.911639625418876
1.0467270765645236
1.0340974775978065
1.1847020018619974
1.0709788300888
0.9249061064148428
0.8668251506175707
0.8886751912715157
1.1422996219209256
1.0076833530369125
1.0672241825066013
1.1236922508572287
1.306316897621865
1.025357938751474
0.8478492704712411
0.8084669465325512
1.0840984494192936
1.0495954540083887
0.9158914552063804
0.9254452187120257
1.069227437680978
1.2240450091352044
1.2494710276158043
0.5531399027764582
0.7219437049675432
0.6604701914179413
0.8108490213653277
0.9425310114408001
1.3215577501497573
1.364052005655626
1.211533922754445
1.4657891760940058
1.2770912713631268
1.368198959549489
1.3346933656593856
1.1649342646466483
1.3087836730064966
0.9379026952547626
0.6984299585525366
0.8434175603726227
1.1723790323066055
1.0430234076725309
1.0106473962953626
0.9537917523895867
1.1680931950517748
1.3122010414303624
1.1452954833974367
1.141886417940842
1.015384246229475
0.7500470557609682
0.8152343458500462
0.6930653813885834
1.020961281985315
1.1969440151760327
1.009845537437733
0.958492015726954
1.0910894511799634
0.9050633167186792
0.7252919845483685
0.5768117529696156
0.8883278559002528
0.8497152666707378
1.0230548181186785
1.0230548181186783
1.0382693910297824
1.1756202329406413
1.1145498219414631
1.2235575899606104
1.3724312200203224
1.2634353607087536
1.0425814301755607
1.0059652207287184
0.9274566558492036
1.0461129194250047
0.7796256081584353
0.9815100486235968
0.6979434699605268
0.37049649001902896
0.3233163849878512
0.14066492298265898
0.1117996720742749
0.09127218866669119
0.15026024497028764
0.188459680494762
0.18936397600895422
0.2051856995073003
0.20080614049879053
0.2132249037918823
0.22624994085148323
0.2356821931583199
0.13815579987732937
0.22662334498556552
0.4848007836950559
1.1425615477967748
0.9920270121160432
0.42408228541068954
0.8175963846701014
0.7713829885307704
0.8191644131988716
0.5928091678628359
0.34105274031413724
0.2910875131529348
0.2068263841978902
0.17004634057455312
0.1432599362069341
0.1609033248150367
0.1523791051806864
0.11999110889465718
0.1090193091777254
0.09294642834080519
0.09628424734278193
0.0927776392304709
0.09628820794400125
0.08775616549866296
0.10077370084677921
0.15754519984983825
0.1159105994257461
0.1319748739470739
0.19146922087611748
0.23092687964076877
0.3552142477019957
0.32814618815104063
0.48477950311956614
0.8889835117975879
0.6923210507770453
0.30321280900565056
0.15488395349800943
0.16694835388524099
0.2252421921510556
0.18185600705552213
0.16805736294455112
0.14641238118779537
0.12605860804974278
0.10582054965758762
0.09837570290130493
0.1077681817932093
0.07513823139120289
0.15299547962588278
0.1252682770969409
0.12039217734345257
0.29031203439648595
0.3672654245598848
0.3772769244844164
0.3300591731870056
0.4797175427943568
0.38508200586432406
0.41664547096114046
0.4524651593778864
0.411591331430971
0.6451517465898755
0.6751354378219623
0.7179958709883065
0.5936471645240012
0.8137325460979634
0.5608129034360033
0.5247343918225931
0.4772685188171778
0.5001069439783288
0.34070796499644485
0.4056542383581591
0.4161495551460811
0.3078316986361199
0.3403811874096634
0.3172699353666862
0.48319751489761914
0.5527218071094142
0.4483611012392441
0.4634538728707771
0.6307788085844694
0.7755293354862905
0.9513537714022485
0.8862652648748405
0.7556343673588313
0.5760955335564273
0.5037248938195235
0.5745667248945551
0.4849145678859379
0.5000125156556017
0.5735618965195732
0.5980318064672364
0.8986482166955352
1.317539222348992
1.4044893379098367
1.3502111171312297
0.9319708177743832
0.559821508181269
0.6366291557016519
0.7893457491511616
0.6658643966568873
0.6450575425577065
0.6678556671012307
0.4431985306206975
0.6347349977183588
0.8388972876857068
0.7136192159658935
0.544236226126492
0.4573634439112279
0.6217680862048677
0.8408512148689041
0.7060799405335602
0.9176629354822474
0.7734742927484831
0.800850084605793
0.813643696778532
0.942768549338422
0.8086820535494906
0.9235703003174652
0.8370738554316735
0.6999304261258931
0.5810612675260777
0.5394142614165582
0.41460251697296363
0.3153298896903386
0.2971364324057839
0.29853799710373957
0.3776842844987795
0.5384922765260914
0.6159349880281746
0.6230440690097231
0.5811034057013215
0.5595151688419762
0.44080298778580396
0.49378152543998466
0.4799303180630447
0.4957891763503906
0.5506216143292821
0.4166298555117432
1.1480085161254687
1.0940709656541638
1.0390108195262173
0.6590818507162869
0.7383454133846666
0.4620709850392574
0.40504873585101514
0.3239593622818528
0.21343218194912797
0.3188484795503912
0.26842116820476813
0.23193726114239255
0.3162012687657422
0.3242756280241233
0.3138514862586749
0.37851449464821435
0.3641244566254891
0.3980623947429336
0.4064653176623473
0.3239593622818528
0.3225601637703751
0.4011885246407924
0.4274557777446575
0.42648208709267466
0.6933731916220782
0.6642373970116643
0.5910076733557545
0.6115362661262095
0.6474530440690003
0.6646940000425029
0.6333777592537038
0.6812293287242854
0.6441225336572358
0.4389058649186558
0.6386999967038831
0.835147721930364
0.8061948213159652
0.6820479779479965
0.3580428882330039
0.7361061375382834
0.7801415212959075
0.832056558961365
0.8027074089873582
0.7676247089399407
0.8443289900247551
0.9337057117286921
1.1262017579157524
0.9717865382691471
0.9349632693454338
0.8901664606280885
0.7786118184019234
0.8885106663704533
0.8796018849918286
0.8000227057867055
0.9230590865986602
0.7396506741577703
0.591429208314817
0.7438132550879505
0.8203292150036751
1.028354309207571
0.834832287505785
0.9509371746203691
0.8377512355346493
0.7848772141210828
0.9699725380646018
0.9391603576882841
0.989619146167053
1.207434724520489
1.0041227165482114
1.0620736120167897
1.0457519162607432
0.8927631511301111
0.734118600861278
0.6936904427913722
0.7592404714569094
0.8073151091252674
0.7167262334189933
0.9760833881003554
0.9760833881003553
0.9268776355066661
0.7924467298239748
0.78105425623172
1.1623537060492661
1.5133369105292402
1.2948653230842246
1.3706883340939833
0.8005858177913168
0.6782868136231691
0.791154292413684
0.8776986193979187
0.9761716710406826
0.8652522596500386
0.8533934520943357
0.8193492623392932
1.045787693777285
0.839487226234307
1.2448190745959145
0.7744674470595873
0.7694602270314956
0.7913538260014069
0.9967056693185737
1.1465650483386745
1.1021804263253594
1.1449138737722728
0.9436233234424222
1.3008661705394322
1.1715993393797655
1.161210358345769
0.9805181272088672
1.0390978004542264
0.8541751461629609
0.7239158643252512
1.0583311712165566
1.3558396360884482
1.195228609334394
1.179217594339265
1.3187669891946583
1.0883965154247073
1.2634353607087536
1.0425814301755607
1.3156468006220374
1.0754689339837809
0.9349217582577467
0.9444089758262478
0.8363949519531846
1.0063593734151723
0.8968962404258228
0.9044501028227006
0.9476522078135015
1.0046743469698036
0.8733854917731902
0.7660323096975954
0.8217388353640489
0.9605580632485784
0.7691526863162897
0.3975254129471937
0.3285312592098318
0.15799164883401992
0.12349075135853027
0.12346948187595688
0.12253370016629395
0.1597719853957489
0.14641515096610022
0.14701093563582968
0.23631306156588675
0.25468979389605084
0.2639275258733338
0.25778465602692013
0.18818770720798464
0.11203811050668812
0.2885842294220991
0.681648147335152
0.7965250083982186
0.7113073804443679
0.6395492644157854
0.8368193865141245
0.9147847465370404
0.7941604705449352
0.52242362209351
0.360724874399097
0.4377201608835338
0.38149433521472725
0.18223190825746163
0.1560617381860835
0.1669666008989286
0.16152543497304328
0.13150029387996398
0.10372455357478999
0.09426590831042285
0.07960498681787695
0.07888709790029604
0.06918367162293541
0.07464595869349269
0.07422335736116038
0.07875857823263972
0.09092411831722697
0.09871128843057995
0.10930231786223395
0.1094829499279211
0.12778091371302955
0.18628500807543844
0.328445014878695
0.3682960812594815
0.47260616145048795
0.722348181210057
1.1268916211553768
0.7193403765738606
0.419441252863109
0.247416831972589
0.1755269709824903
0.14298121542716363
0.11462020488751173
0.09937395049867855
0.10228861443076719
0.1020509343902498
0.12534677137356645
0.11687519725719686
0.09936520899194343
0.10826627174769642
0.12440695568814131
0.12379492261487958
0.10549709099526615
0.17369640468990843
0.232271851727948
0.3076736350939655
0.36484228186113304
0.4213499814578293
0.25718091454613584
0.2660847781660604
0.3544566677562222
0.35624226179598445
0.6150011186141601
0.45352408377467196
0.4629399236375633
0.5311915508844435
0.5487106687912228
0.6549826711856117
0.5886977901614782
0.5072853904491341
0.41504498406111967
0.34005586745596605
0.308198186189947
0.3158522784266496
0.322964352068704
0.34289599748763105
0.362216795477241
0.38620887352261785
0.35105422315189744
0.4621622100742075
0.5503530416272371
0.6865730626507184
0.6499553188451245
0.9143167475426839
0.7300074386847873
0.7142149222235995
0.6429463990033193
0.652206742660552
0.5241000884090906
0.4524954698800484
0.411591331430971
0.6402082296461895
0.7697446849363075
0.8719338811431663
0.925697467147459
0.8106302031599009
0.7108028126901953
0.8295898207860957
0.9878380916825433
1.2942511766909675
1.203380279392118
0.9754320534836438
0.8762327411592161
0.530226059583168
0.5526569144472637
0.5541456312500384
0.5286962737496554
0.6202106702204385
0.8012073543503299
0.7432513778745516
0.7977310093624869
0.9144119500837554
0.9013576091498581
0.8937882404001967
0.8008050263798939
0.7719766644613798
0.9753459565707018
1.4075690910533754
1.3023643061519572
1.1086136383418481
0.7288820291537731
0.7577244912254093
0.5665100406443647
0.6847402487061562
0.6680716430484422
0.5716317172663763
0.6304414396129617
0.589301722582345
0.7043744884083052
0.9699922638726356
0.824363734624297
0.7795340876283635
0.49928803073831685
0.6957932178362544
0.9636318233389928
0.7482861170720545
0.7750128997707013
0.7446902157071378
0.6334489406252183
1.168802886504714
0.9198648458029555
0.7150914081389851
0.603098898739774
0.4600468133431083
0.5143516589987994
0.5615826734141195
0.5875267993353871
0.4851759979414136
0.435655473684212
0.5447886712779664
0.4620709850392574
0.46399955607762594
0.29813637434763196
0.3001950940259333
0.4049542843623645
0.4203324756680557
0.6016946505420158
0.5876944962088606
0.517679874100716
0.3785653507035791
0.353210364057747
0.4326334188066465
0.4122548818159769
0.3910531286488953
0.3695780413038854
0.38167854334957474
0.5108424530675607
0.47989113363957625
0.5856056423933053
0.5453669736046718
0.578159609124607
0.6652956399300598
0.6921910271822926
1.034375448231825
0.799362259895464
0.9134095844855017
0.9066248672929537
0.8378337018226177
1.2519155311915775
1.5193290995506092
1.2726872116284087
1.0466904273560986
0.9441380067128832
1.3256429045432467
0.9509371746203689
0.9477312177538479
0.8291512528207481
0.9738650377164112
0.9480229872706505
1.374257680634697
1.4156455595012372
0.9582273764183011
0.5719128321904855
0.5965778223746192
0.645985903462525
0.8223404286774375
0.9699725380646012
1.1105984098392119
1.1794541676380632
1.0248255954930123
0.7080969010111687
0.34441076070566445
0.4680580833120437
0.4596544078218283
0.4996141287395944
0.5055717210138801
0.5076774936295642
0.40418276342082465
0.35178522258068556
0.5003148513952038
0.6038462675972637
0.5002730564140637
0.533235445044967
0.5499805018560554
0.824811750624828
1.1221672133563974
1.2078772595153062
1.1882865146786727
1.1524865862267561
0.9280183561106279
0.8960025685348953
1.1210565568465958
1.2644142998317938
1.128963506897948
1.003626431693868
0.7772975595914663
0.5780581657442634
1.0820837826734246
1.096424632411823
0.933341473195591
0.4360802934990711
0.6080672613832036
0.6969046559101603
0.7489488509253477
1.5659984704522254
1.3705448256996544
1.2673600031420333
1.2651585992410166
0.9548087680992647
1.1986605807931352
0.9872956954614686
1.3727917742656073
1.3442613300824877
0.9922640518768954
1.29702279265567
1.2919077253358926
1.1981742535722466
1.192316546270649
1.3262268746048247
0.8754660495734014
0.9645798943405389
1.191982971370522
0.9717865382691471
0.9349632693454338
1.1177594663155819
1.0764234148914034
0.8460477676144222
0.8878629940130052
0.6586773465648175
0.6045141044615425
0.6751354378219623
0.8647263032917201
0.8511548244242721
0.6858547156930246
0.9069765339587297
1.0618048842292853
0.6915545591914792
0.5608794878761523
0.33206844141609887
0.23674163150973482
0.1756102847440271
0.17683459830357265
0.17414113695383815
0.15587639770069311
0.16251954316671702
0.17135057665506556
0.15089497059045007
0.14004138407726632
0.16292701318612535
0.21287166012093414
0.35184130597409274
0.3011372246005302
0.5570802664589102
0.943263464993995
0.7907203614427648
0.596037533612647
0.4045810731239442
0.5395971408953347
0.30819409132080083
0.2684354075243641
0.13208877500479568
0.19615829577937613
0.20210895836437556
0.07908819813843791
0.10577888633313644
0.18726908245586738
0.28927484830195477
0.4709127248273517
0.9939295138820392
1.0763729276923546
0.6254888929117768
0.48146470839733535
0.734702475554541
0.8495104620424121
0.9198415197715569
0.891048373714436
0.8498930401570032
1.371899738394324
0.8337456694804921
0.5285536204667074
0.49183252377984393
0.5010351728788084
0.6382590847588001
0.6588545898872376
0.660675617765535
0.5091914271610612
0.5202629292630957
0.5740186054919965
0.6133159177170047
0.5615826734141195
0.48956468251941593
0.5077276095077935
0.49104427189608923
0.5132545128178166
0.6282567933569796
0.619897172543058
0.5066099651609778
0.3902793890442007
0.2747497366456456
0.36355473041073233
0.48369668351721984
0.5325671663909383
0.5483133347408149
0.4532381718900864
0.5464240455156832
0.5792200265333265
0.7683538891595102
0.8664184488563227
1.0508592550923126
0.6536670018228359
0.7239158643252512
0.9214443293513173
0.9227068890463298
0.6413941320392836
0.4987593258715341
0.5182271913106452
0.5651639756834459
0.6487610795729823
0.8727747219988075
0.8394581101214152
0.8623741870445484
0.7575782536324419
1.0100661863643932
1.1559311721487833
1.3698437660741796
1.1235308840678728
0.881774681094869
0.9310995765661483
0.8202857902878375
0.9050633167186792
0.7252919845483685
0.8079102746295237
1.0001475005407332
1.009249692032445
1.0230548181186785
0.9801876763266392
0.9526568652951035
1.142465928089475
0.8625947520948023
0.8237630731625791
0.5551726102812241
0.5800650060645776
0.47497449645214374
0.4506990624788496
0.5122376908019017
0.5303819647742457
0.33549090529174286
0.48206023371970697
0.42305367931561844
0.37049649001902896
0.34381851213317677
0.40587245251562143
0.4394219045289905
0.3612254944977731
0.170355251221804
0.27795734933069427
0.315692160687805
0.3329395156234267
0.2764531210693664
0.2348850728548722
0.27888534172847596
0.3994000880253017
0.39130467680058423
0.4017359756005503
0.4706296371537134
0.4709000388253025
0.3892383161431506
0.40025362071427867
0.5122376908019017
0.8074693673461995
0.660758000242625
0.8548742534473974
0.6926219223424409
0.7741105765943946
0.9535774949114604
1.0798447662188377
0.9016306478343086
0.7957149248039014
0.6334489406252183
1.0599104516284878
1.1450843080971738
1.0345687557879053
1.276255040783841
1.4196562751180521
1.2637069354450898
1.25741884384163
1.1757601751105218
