1.3236758759775415,4.995709991139234
1.2734869253166703,4.959177935118014
1.2734869253166703,4.649362034624332
1.2734869253166703,4.169566997046481
1.2734869253166703,3.220186645352676
1.2734869253166703,2.050403803487406
1.1814615417811822,1.6390100180438445
1.1814615417811822,1.5441809714504162
1.1814615417811822,1.5441809714504162
1.1814615417811822,1.5441809714504162
1.3804061932392575,1.072014681025761
1.4175643640711668,1.072014681025761
1.553963054986414,1.072014681025761
1.553963054986414,1.0460752288592536
1.553963054986414,1.0460752288592536
1.4175643640711668,1.0460752288592536
1.4175643640711668,1.0635311075579998
1.4292174740483452,1.0635311075579998
1.0507545184930944,1.0635311075579998
0.9297868603005595,1.0635311075579998
0.9297868603005595,1.0460752288592536
0.9297868603005595,1.0724158670639867
0.9297868603005595,1.194304455045984
0.9297868603005595,1.194304455045984
0.9297868603005595,1.2080404136249159
0.9297868603005595,1.338331954697779
0.8909405092267395,1.338331954697779
0.8908830378192584,1.338331954697779
0.8909405092267395,1.338331954697779
0.9533039210265222,1.3355038252325018
0.9533039210265222,1.3706801531060888
0.8909405092267395,1.4101179143376839
0.8898681589987898,1.4237968009756456
0.8700073964250028,1.4237968009756456
0.7982205979466925,1.4051274805234906
0.706914062459675,1.4016271825704145
0.5922965442876852,1.4016271825704145
0.45192362511739664,1.4016271825704145
0.45192362511739664,1.4016271825704145
0.43776743663347467,1.4016271825704145
0.4200138836865061,1.4016271825704145
0.41776975206472977,1.4035735573107
0.41776975206472977,1.4035735573107
0.41776975206472977,1.4035735573107
0.41776975206472977,1.4035735573107
0.41776975206472977,1.4108502252921071
0.4200138836865061,1.4173178916675206
0.6020755394148078,1.4638665295920876
0.6376354174680925,1.522967436232734
0.6391309752618247,1.5633028638570547
0.6054752827110301,1.6763607873727062
0.6054752827110301,1.8301813221509755
0.6391309752618247,2.053390869586136
0.8503974123816539,2.248441748833198
0.8503974123816539,2.6485043636385046
0.8503974123816539,3.53152543207245
0.784831775725993,4.905327772754063
0.6391309752618247,5.574478697051474
0.5568527704637235,5.627572159635445
0.5568527704637235,5.6541757666761825
0.5568527704637235,5.6541757666761825
0.5894117433679898,5.6541757666761825
0.7458845006574122,5.707289884030795
0.7458845006574122,5.738221605925497
0.7458845006574122,5.753995058196207
0.7458845006574122,5.7544126136321045
0.7458845006574122,5.793316393775428
0.7648013365050709,5.793316393775428
0.767805706874392,5.753995058196207
0.810640778623279,5.707289884030795
0.8248713924342599,5.609039611214371
0.8822096630903319,5.576933409628689
0.9502999986660722,5.532740796962512
1.0489824369477456,5.298490261104776
1.2698715703748409,5.1323244388422165
1.3413173092235755,5.0504315440165595
1.5511694183959124,4.727746334672462
1.556509933430262,4.380932903867748
1.6414120726815573,3.8934074844532716
1.7099428699986885,3.200966160250874
1.71607784114474,3.200966160250874
1.71607784114474,3.200966160250874
1.6414120726815573,3.200966160250874
1.6414120726815573,3.200966160250874
2.0142550362066647,3.200966160250874
1.4807962211790828,3.200966160250874
1.2517556448945004,3.200966160250874
1.2246730842612537,3.200966160250874
1.1381711616174492,3.200966160250874
0.9588069692551846,4.027228795145014
0.9588069692551846,4.58790314663414
0.9588069692551846,5.452157363954148
0.9588069692551846,5.54544889111745
0.9588069692551846,5.579404487275263
0.9588069692551846,5.579404487275263
0.9588069692551846,5.54544889111745
0.9588069692551846,5.534859927991229
0.9958435848068334,5.469052264124491
1.0724351522694282,5.44089797476403
1.0955364798117408,5.44089797476403
1.0955364798117408,5.42369262034299
1.0955364798117408,5.399358036759207
1.0955364798117408,5.352300086918706
1.0955364798117408,5.270041878881851
1.0955364798117408,5.219850835085378
1.0955364798117408,5.212835882745057
1.0955364798117408,5.134972467218792
1.254658494121397,5.073128816053379
1.254658494121397,4.911014761230556
1.3551638023939885,4.84622855452064
1.4804868688612247,4.84622855452064
1.4804868688612247,4.84622855452064
1.4804868688612247,4.84622855452064
1.953454661592849,4.84622855452064
1.4330838278874234,4.84622855452064
1.4330838278874234,4.911014761230556
1.4330838278874234,4.8723698670913995
1.4330838278874234,4.8723698670913995
1.4103374923385708,4.999153550464962
1.2683265619061324,5.068214141880767
1.2683265619061324,5.1564245340025625
1.2683265619061324,5.115048949783773
1.2683265619061324,5.1065958544155095
1.4103374923385708,5.1065958544155095
1.4330838278874234,5.068214141880767
1.645734322487552,5.0091111267946715
1.645734322487552,4.8723698670913995
1.645734322487552,4.820743998868216
1.7032107795869307,4.820743998868216
1.7032107795869307,4.820743998868216
1.7032107795869307,4.820743998868216
1.7663528003759914,4.820743998868216
1.7663528003759914,4.820743998868216
1.7663528003759914,4.820743998868216
1.7663528003759914,4.820743998868216
1.857879659194962,4.820743998868216
1.934287082196258,4.880277593809495
1.934287082196258,4.880277593809495
1.934287082196258,4.880277593809495
2.086397447903893,4.8122278071187194
2.0878695344714613,4.431671001415681
2.2565381592092626,4.3091595516530345
2.2802600720525006,4.168475206905197
2.2802600720525006,3.978787077735171
2.2802600720525006,3.569179530244746
2.3383697452650964,3.2537681799070266
2.3383697452650964,3.2537681799070266
2.696672112094732,3.2537681799070266
2.8947215885253623,3.2537681799070266
2.908522555223406,3.2537681799070266
2.9463351075728594,3.2537681799070266
3.026783305716695,3.062153902574516
3.0050102060635653,2.81855405115696
2.964002221424948,2.5603046394492086
2.877997298419639,2.41190469893
2.7378269730905087,2.095104298558077
2.6858012816650327,1.9867540200869491
2.405480002852607,1.931402421420786
2.405480002852607,1.5380486684375023
1.7948826509235742,1.4662097133983494
1.700047695972296,0.9862627351676365
1.6847100663041075,0.8195176355053964
1.0958188462712328,0.7849880666713752
1.0958188462712328,0.7535658048913924
1.0958188462712328,0.7533204703584734
1.0958188462712328,0.7533204703584734
0.9833920604702573,0.7533204703584734
0.9365521803364055,0.7533204703584734
0.9365521803364055,0.7533204703584734
0.9365521803364055,0.7535658048913924
0.9365521803364055,0.7535658048913924
0.9365521803364055,0.8195176355053964
0.9833920604702573,0.8375535677333621
0.9562419148002039,0.9640845368926273
0.9562419148002039,0.9640845368926273
0.9222094913445992,0.9702702411862723
0.9222094913445992,0.9822209109320361
0.9222094913445992,0.9822209109320361
0.9562419148002039,0.9822209109320361
1.0524198934005433,1.005546465221266
1.0524198934005433,1.005546465221266
1.0524198934005433,1.0748385037291954
1.0524198934005433,1.0746594126807147
1.0524198934005433,1.0746594126807147
1.2497327093347648,0.9822209109320361
1.313220220995848,0.9716498602614095
1.350907207592468,0.9225979357045351
1.36463561884398,0.8890965453345432
1.6597169372700566,0.7547158908371719
1.7656259129043155,0.7547158908371719
1.7656259129043155,0.7547158908371719
1.8884671449947865,0.7547158908371719
2.0101926026970953,0.7547158908371719
2.0101926026970953,0.7547158908371719
2.055032466939931,0.7547158908371719
2.14279912470422,0.9225979357045351
2.1988804146804366,0.9653078371290065
2.255708616407132,1.203279480688088
2.301223177998516,1.3120279596796012
2.301223177998516,1.4202986014704722
2.4984141318845015,1.4530519708896374
2.4984141318845015,1.4530519708896374
2.5063950167152846,1.5163666883592817
2.5859106891049937,1.67599535237781
2.601452728540298,1.9575933739390334
2.933078961552662,2.2221689651657304
2.933078961552662,2.2221689651657304
2.933078961552662,2.2221689651657304
2.933078961552662,2.2221689651657304
2.933078961552662,2.2750358178491963
2.956813156725986,2.4170294502960403
3.197475770929013,2.6053666341012294
3.2145544169614464,2.6053666341012294
3.387974705253921,2.6138357099790523
3.2442787009683043,2.694610395935616
3.2442787009683043,2.73473075386761
3.2442787009683043,2.8028140224970963
3.3280100151999568,2.6053666341012294
3.3280100151999568,2.548428405539448
2.973184318133379,2.548428405539448
2.973184318133379,2.548428405539448
2.973184318133379,2.4303224723269583
2.973184318133379,2.3601762318993806
2.973184318133379,2.3601762318993806
2.8843255699406907,2.3601762318993806
2.8843255699406907,2.3601762318993806
2.8843255699406907,2.3601762318993806
2.8843255699406907,2.3601762318993806
2.610154286719375,2.548428405539448
2.527888806848368,2.1467179878609572
2.527888806848368,1.8654105653922748
2.527888806848368,1.8654105653922748
2.527888806848368,1.90583170921719
2.527888806848368,1.90583170921719
2.527888806848368,1.90583170921719
2.527888806848368,1.7917344924323577
2.4321300603787157,1.642954698539605
2.163017401722597,1.642954698539605
2.163017401722597,1.5509504936889849
2.163017401722597,1.52526850210367
2.090706967839623,1.418123008152655
2.090706967839623,1.3434004584910966
2.090706967839623,0.7749048393205034
1.9412345262963546,0.7749048393205034
1.9202449822667584,0.7749048393205034
1.8315922020377484,0.7749048393205034
1.7995496831456665,0.6877411694322262
1.7995496831456665,0.6877411694322262
1.7995496831456665,0.6877411694322262
1.7995496831456665,0.6877411694322262
1.7995496831456665,0.6877411694322262
1.7995496831456665,0.7749048393205034
1.7995496831456665,0.926292133773959
1.7995496831456665,0.950568237874825
1.7995496831456665,0.950568237874825
1.9817728972775432,0.950568237874825
2.085092282853653,0.950568237874825
2.3040720930069276,1.08329952459019
2.3155758688268486,1.0975391535097727
2.3241854927810093,1.3120952135050854
2.4979313198341955,1.3453630548341902
2.661465745334097,1.4227655819616374
2.6717222774866354,1.6738922206735458
2.8163714713174235,2.1241643539224304
2.8868891048895713,2.1241643539224304
2.6717222774866354,1.8480148895682944
2.661465745334097,1.5101598163691548
2.5611062903208004,1.5101598163691548
2.5611062903208004,1.5101598163691548
2.5611062903208004,1.5101598163691548
2.5611062903208004,1.5101598163691548
2.5611062903208004,1.5101598163691548
2.5611062903208004,1.5101598163691548
2.5611062903208004,1.5101598163691548
2.5611062903208004,1.5101598163691548
2.459952278357194,1.5101598163691548
2.504091020720955,1.7761164494894737
2.459952278357194,1.8263383836365727
2.681434860711899,2.0120039982543427
2.681434860711899,2.0120039982543427
2.681434860711899,2.1471562177547807
2.681434860711899,2.1968314117828576
2.681434860711899,2.1968314117828576
2.681434860711899,2.1968314117828576
2.835278711220472,2.1968314117828576
2.835278711220472,2.1968314117828576
2.8884779531524294,2.1968314117828576
2.8884779531524294,2.423011479455136
2.8884779531524294,2.672429789475452
2.757609342026265,2.7868708197086742
2.730450582964186,3.1324830815159044
2.555387384512595,3.2662838982065145
1.9273893387402234,3.5462605052038465
1.9173320360683002,3.757808849012593
1.6830521000487197,4.206287897297252
1.6736999218612083,4.4103302957608985
1.3738494277446023,4.779501420837228
1.344820501564161,4.962125004075575
1.344820501564161,5.045871334283727
1.344820501564161,5.054581166514165
1.344820501564161,4.318343789827554
1.344820501564161,3.6261366284075978
1.3321790427381728,2.46379098122983
1.2224535727734216,1.9345827507266558
1.2224535727734216,1.4561710144766027
1.2224535727734216,1.4561710144766027
1.2224535727734216,1.4561710144766027
1.1490148259983022,1.4494141146178077
1.2583545325452374,1.3942140874079203
1.1490148259983022,1.3389227951048035
1.1292364984107064,1.3095943531018417
1.0246524819242402,1.3095943531018417
1.0246524819242402,1.3095943531018417
1.0246524819242402,1.3095943531018417
1.0246524819242402,1.216059757143092
1.0246524819242402,1.216059757143092
0.9310799387737083,1.216059757143092
0.8825481247578048,1.216059757143092
0.9310799387737083,1.2506613853577884
0.9326765335782049,1.2506613853577884
1.0246524819242402,1.3095943531018417
1.0792185599591462,1.3161505796622142
1.1265835290353514,1.3161505796622142
1.0158029537153508,1.3161505796622142
0.8683556980917471,1.3161505796622142
0.8683556980917471,1.2506613853577884
0.8683556980917471,1.2506613853577884
0.8683556980917471,1.248427076453635
0.8756039378070629,1.248427076453635
0.8683556980917471,1.248427076453635
0.8448118659692795,1.3268681170496188
0.5934462577603368,1.2509428229702733
0.5877123635911544,1.2509428229702733
0.5675103475378013,1.2509428229702733
0.5479015833705914,1.2509428229702733
0.5392955132618206,1.2509428229702733
0.5392955132618206,1.2402229482091178
0.5392955132618206,1.2402229482091178
0.5392955132618206,1.3268681170496188
0.5392955132618206,1.3268681170496188
0.5392955132618206,1.3268681170496188
0.5479015833705914,1.3299968516032277
0.6668305095577585,1.348282537361157
0.6982342061879253,1.370883644114679
1.0848527102193308,1.4903261814076931
0.8981001254875504,1.4903261814076931
0.9310426074260334,1.5846148985189952
1.095552754175767,1.812539579032621
1.2545602964775349,2.1110571337106534
1.2737743082108044,2.6173641936564715
1.2545602964775349,3.3733791668184465
1.1526254509525906,4.682840327578324
0.9776694939075399,5.115601667965685
0.9310426074260334,5.194411299980697
0.8922669209520345,5.424187464944476
0.7740873564208759,5.49189389850877
0.7149579060579788,5.536633812887292
0.7116891706090939,5.587046248876103
0.7116891706090939,5.678496715620758
0.7116891706090939,5.745591637615506
0.7116891706090939,5.796784025928227
0.7116891706090939,5.82130454872697
0.7116891706090939,5.82130454872697
0.7149579060579788,5.811254278495596
0.7398518502842043,5.811254278495596
0.800959677718742,5.765525764644931
0.831093503236268,5.759825986678174
0.831093503236268,5.759825986678174
0.8433037604757888,5.708555453253218
0.9188438676751562,5.700595267765006
0.9599261879670914,5.65889338861731
0.9969466591559384,5.632138597996918
1.0367008364469819,5.563224248471235
1.0367008364469819,5.272162252826479
1.0367008364469819,4.758799089899401
1.0367008364469819,4.718792762001185
1.052005026623966,4.4721359549995965
1.4403584886095908,4.4721359549995965
1.4403584886095908,4.4721359549995965
1.4403584886095908,4.4721359549995965
1.4403584886095908,4.4721359549995965
1.608737686336024,4.4721359549995965
1.3361798899975832,4.4721359549995965
1.0835216521700826,4.4721359549995965
1.0371019409715156,4.4721359549995965
1.0371019409715156,4.833241966153122
1.0371019409715156,5.085532690049034
0.996368744861592,5.411372461161113
0.996368744861592,5.570974167807286
0.996368744861592,5.605678121811457
0.996368744861592,5.64420648344563
0.996368744861592,5.64420648344563
1.0371019409715156,5.638288606471636
1.0540717434730276,5.563683575412448
1.0926788611734104,5.492418054881591
1.093566251434836,5.480611313739633
1.093566251434836,5.433005459585871
1.1125503690749978,5.254432884968416
1.2492070705689133,5.2100903590128365
1.3577890492667692,5.2100903590128365
1.369111934167451,5.1199518231954055
1.401682312071389,5.097115471142682
1.4540155770383498,5.097115471142682
1.4540155770383498,5.011274140192607
1.4540155770383498,4.9385890181294245
1.6225092801380436,4.9385890181294245
1.6225092801380436,4.89936530235939
1.769023146295165,4.848846210506494
1.769023146295165,4.715381930636309
1.769023146295165,4.627573415457598
1.8441263270592667,4.462601095475265
1.8919347494477488,4.33640882175944
2.037976425673713,4.330399389177391
2.2933317159713247,4.30414287025487
2.2933317159713247,4.214629685843668
2.2933317159713247,4.202761542964871
2.2933317159713247,4.202761542964871
2.3638806459579125,4.202761542964871
2.619854729481146,4.202761542964871
2.619854729481146,4.214629685843668
2.619854729481146,4.297378009119648
2.619854729481146,4.297378009119648
2.619854729481146,4.268309681120466
2.3638806459579125,4.268309681120466
2.293515975458975,4.268309681120466
2.2170880387713536,4.411436829362746
1.7617111413598714,4.461135038778327
1.7617111413598714,4.539868510151592
1.7617111413598714,4.539868510151592
1.7617111413598714,4.539868510151592
1.7617111413598714,4.539868510151592
1.7617111413598714,4.472135954999582
1.7617111413598714,4.579636021606935
1.7617111413598714,4.579636021606935
1.9566658507805703,4.579636021606935
2.0430430116924683,4.579636021606935
2.0091882131006464,4.579636021606935
2.0091882131006464,4.579636021606935
2.1010384347650595,4.588857334947567
2.174035100906487,4.570901448570745
2.174035100906487,4.472135954999582
2.174035100906487,4.472135954999582
2.100606088686964,4.51245482779753
2.100606088686964,4.51245482779753
2.100606088686964,4.383863795563467
2.100606088686964,4.02524834458904
2.0143040400701757,3.8520452454986716
2.100606088686964,3.1348000780329026
2.289513819494603,2.8471420514157266
2.289513819494603,2.5314334792190656
2.0143040400701757,2.1761854022117415
2.0143040400701757,1.597813269129728
1.982934285186243,1.1324913548525821
1.847429698071153,1.1300593529585392
1.6754312521086314,1.0691946871810791
1.6754312521086314,1.050121634475503
1.2768792590095464,0.9813624211425762
1.1823378483745892,0.9567824105720439
1.1823378483745892,0.9206346107889225
1.1823378483745892,0.9042980709941664
1.1823378483745892,0.809968557147973
1.162368138428649,0.809968557147973
1.0017110102256033,0.7627625828704319
1.0017110102256033,0.7627625828704319
1.0017110102256033,0.7154897943994366
1.0017110102256033,0.7154897943994366
1.162368138428649,0.6616365936302718
1.162368138428649,0.6168638313432078
1.0783058099746476,0.5952493808918575
1.0783058099746476,0.5484173011671459
1.0783058099746476,0.514478201138591
1.0783058099746476,0.5125787065119792
1.123281930759991,0.5125787065119792
1.123281930759991,0.5125787065119792
1.1781678537932117,0.5125787065119792
1.1781678537932117,0.5125787065119792
1.1781678537932117,0.5125787065119792
1.1781678537932117,0.514478201138591
1.2002955128775021,0.514478201138591
1.2710731196144704,0.7723921338147864
1.2638982091067763,0.7922759230203371
1.2638982091067763,0.8077398593687269
1.2638982091067763,0.8593887330765559
1.31612878556263,0.957943795803171
1.31612878556263,0.9982619625551465
1.4147075947655452,1.1775845752565397
1.4867331015578578,1.1829202267643153
1.4867331015578578,1.185977043210745
1.4867331015578578,1.1829202267643153
1.8083267897790658,1.1829202267643153
2.1730128300128815,1.1829202267643153
2.2835994914738005,1.1829202267643153
2.3340378781852475,1.1829202267643153
2.4078338846166076,1.2238948780365946
2.450062522249428,1.2238948780365946
2.536788588688527,1.236963113147331
2.587162868033497,1.311985837000025
2.587162868033497,1.311985837000025
2.587162868033497,1.311985837000025
2.587162868033497,1.3525878937793903
2.5356740538670404,1.3525878937793903
2.439696887547311,1.3525878937793903
2.4283809177126674,1.3525878937793903
2.2628247982314784,1.2507922025098464
2.0443104503901477,1.1714628868743813
2.0443104503901477,1.2045061325994515
2.0443104503901477,1.2045061325994515
2.0443104503901477,1.2045061325994515
2.0443104503901477,1.2045061325994515
2.0443104503901477,1.2045061325994515
2.0443104503901477,1.2045061325994515
2.0443104503901477,1.2045061325994515
2.2628247982314784,1.2045061325994515
1.9852111116827609,1.2045061325994515
1.9189409428659476,1.3895149114524128
1.9189409428659476,1.4358609173421606
1.661744441843722,1.4358609173421606
1.5402542958423955,1.4358609173421606
1.5402542958423955,1.4358609173421606
1.5402542958423955,1.4358609173421606
1.5402542958423955,1.4358609173421606
1.5402542958423955,1.4358609173421606
1.5402542958423955,1.4358609173421606
1.5402542958423955,1.4358609173421606
1.5402542958423955,1.4358609173421606
1.5402542958423955,1.5169970573439033
1.5999638649699748,1.5169970573439033
1.822628636840178,1.5169970573439033
2.1228069121379973,1.6285449084128336
2.626733097897376,1.6285449084128336
2.8981272415717743,1.6285449084128336
2.7733557245537037,1.6285449084128336
2.7733557245537037,1.6285449084128336
2.7733557245537037,1.6285449084128336
2.7733557245537037,1.7483653302293893
2.8144751580147807,1.6763670359808458
2.8144751580147807,1.5953926643922087
2.7733557245537037,1.5953926643922087
2.656450402520054,1.6763670359808458
2.4037714284532266,1.6763670359808458
2.4037714284532266,1.6763670359808458
2.3370433845442475,1.5953926643922087
2.3370433845442475,1.5953926643922087
2.3370433845442475,1.5953926643922087
2.3370433845442475,1.5953926643922087
2.3370433845442475,1.5953926643922087
2.3370433845442475,1.5953926643922087
2.3370433845442475,1.6275825226664997
2.4037714284532266,1.5249708074734063
2.649694309063964,1.5249708074734063
2.7472916478312572,1.6275825226664997
2.7837277474475024,1.6403782069433972
2.7837277474475024,1.714466189056287
2.7837277474475024,1.5884555689787594
2.6440786463834747,1.5229498455399024
2.5340536837251824,1.5229498455399024
2.5340536837251824,1.5229498455399024
2.5340536837251824,1.5229498455399024
2.5340536837251824,1.5229498455399024
2.5340536837251824,1.5229498455399024
2.5340536837251824,1.5229498455399024
2.5340536837251824,1.5229498455399024
2.5340536837251824,1.5229498455399024
2.6440786463834747,1.6217790098210338
2.6597333242693173,1.8638020547071723
2.8724994568283524,2.3494118358327176
2.884688762457038,2.6407872788088578
2.884688762457038,2.773806003559143
2.884688762457038,2.9961858567820507
2.884688762457038,3.1046858576317296
2.884688762457038,3.238568390104639
2.884688762457038,3.238568390104639
2.756579870640742,3.238568390104639
3.188377119777808,3.238568390104639
3.0524630301291884,3.238568390104639
3.0524630301291884,3.238568390104639
3.0524630301291884,3.3011816350498457
3.038183693717979,3.238568390104639
3.0524630301291884,2.3270069961493483
3.0524630301291884,2.3270069961493483
3.0524630301291884,2.3270069961493483
3.0524630301291884,2.3270069961493483
3.0524630301291884,2.3270069961493483
3.0369353300836126,2.3270069961493483
2.855993445287774,2.3270069961493483
2.855993445287774,2.3270069961493483
2.2805957397928416,2.3270069961493483
1.9832618143792418,2.3270069961493483
1.5764003698163842,3.265064730407484
1.1450447076156804,3.5787436039888147
1.1450447076156804,4.234499069205461
1.1450447076156804,4.498360650011397
1.1450447076156804,4.87711050104789
1.1450447076156804,4.994880816873438
1.1450447076156804,5.19820186772517
1.1450447076156804,5.251408287055314
1.1450447076156804,5.19820186772517
1.1602556251453815,5.043742861089028
1.2344073990113795,4.8379478388639585
1.2344073990113795,4.237809679522263
1.3617954863833368,3.3240217092163187
1.2592620036464344,2.053127733639612
1.2344073990113795,1.660651563354005
1.2344073990113795,1.5290542695210902
1.2344073990113795,1.5290542695210902
1.2344073990113795,1.5290542695210902
1.2567708386617993,1.3802340308617265
1.2592620036464344,1.2018648444409483
1.3396892030245469,1.2018648444409483
1.3396892030245469,1.2018648444409483
1.3396892030245469,1.2018648444409483
1.2592620036464344,1.2018648444409483
1.3396892030245469,1.2327856159050443
1.3396892030245469,1.3179071438914047
1.3348337881295962,1.3179071438914047
1.2409122415438705,1.3179071438914047
1.2052485698154773,1.3179071438914047
1.0420275966631514,1.4297953000780685
1.04032674195951,1.4479347569029617
1.04032674195951,1.4479347569029617
1.04032674195951,1.4668622509168898
0.998210717130196,1.4668622509168898
0.9894431876490148,1.4668622509168898
0.9750103165126655,1.4482211634681847
0.9256292745028093,1.4297953000780685
0.9147031437453562,1.370428670097883
0.884544469889822,1.370428670097883
0.8814839646243072,1.370428670097883
0.8814839646243072,1.370428670097883
0.8299281228076079,1.328496766077628
0.722769073620376,1.3685466799455337
0.5541059778139416,1.3685466799455337
0.4031732223473339,1.3685466799455337
0.4031732223473339,1.3685466799455337
0.4031732223473339,1.3685466799455337
0.4031732223473339,1.3942315196405293
0.4031732223473339,1.4239166731816855
0.4031732223473339,1.4239166731816855
0.4031732223473339,1.4239166731816855
0.49388605334789487,1.4739889463898146
0.7826178064032195,1.512960258086349
1.1198681693887844,1.5202314575134408
1.395357593550948,1.531126867194383
1.2668066907065856,1.5592491166120264
1.2502303773584107,1.6262831183067186
1.2668066907065856,1.6508233263824275
1.2668066907065856,2.2894710119933634
1.018122608825672,2.311554450001796
0.7642510090616037,3.658152054367845
0.7082774971709478,4.909337652645534
0.7074622197078304,5.344451000465401
0.7020017095549079,5.565707202248174
0.7020017095549079,5.626602375914592
0.7020017095549079,5.654580412131187
0.7020017095549079,5.7752175537595125
0.7020017095549079,5.804099057362499
0.7074622197078304,5.794501641930229
0.7082774971709478,5.794501641930229
0.7893601268449005,5.794501641930229
0.8186540170574078,5.794501641930229
0.8500007446581991,5.794501641930229
0.8554656848885975,5.759167496684695
0.8642712915875845,5.699096296728123
0.8759341910558538,5.699096296728123
0.9223933890676871,5.650735758544774
0.9798099590762694,5.6233085579250774
0.9798099590762694,5.59028940012484
0.9798099590762694,5.59028940012484
0.9798099590762694,5.567476247030789
0.9798099590762694,5.564420696841852
1.0311104683549037,5.52344770738995
1.0566220988561035,5.492452546828606
1.0766930355719109,5.45656269109498
1.0766930355719109,5.45656269109498
1.0809669782944513,5.45656269109498
1.0809669782944513,5.45656269109498
1.142799670960938,5.45656269109498
1.0809669782944513,5.45656269109498
1.0730066694021383,5.45656269109498
1.0730066694021383,5.45656269109498
1.0730066694021383,5.45656269109498
1.0263841373731466,5.5168144281178435
1.0263841373731466,5.5168144281178435
1.0263841373731466,5.517656556136306
1.0263841373731466,5.474095770823512
1.0263841373731466,4.74981448044636
1.0571909422080314,3.9721481435443096
1.0263841373731466,2.921161262880602
1.0571909422080314,2.1459508007270647
1.0571909422080314,1.6463021415916907
1.0571909422080314,1.612610601853739
1.0748336276725177,1.612610601853739
1.4998075485427034,1.612610601853739
1.5826002158008006,1.612610601853739
1.6127199906388812,1.612610601853739
1.6127199906388812,1.612610601853739
1.7042323123218668,1.612610601853739
1.8607380950570205,1.612610601853739
1.8629405892399675,1.6605014570206682
1.8695954827256298,1.9046719805098462
1.9955562993972236,2.3574305229872796
1.9955562993972236,2.53471556537939
1.9955562993972236,3.5656507690184758
1.9955562993972236,3.6513927099412693
1.8811575289255376,3.6513927099412693
1.8695954827256298,3.6513927099412693
1.8695954827256298,3.6513927099412693
1.6832893457454774,3.6513927099412693
1.3142131079085937,3.677085973374009
1.3142131079085937,4.061564420586279
1.3142131079085937,4.061564420586279
1.3142131079085937,4.224577977830039
1.3142131079085937,4.137127344400804
1.3142131079085937,4.155850790727651
1.3142131079085937,4.029378742937334
1.3142131079085937,3.731609129301626
1.3142131079085937,3.731609129301626
1.6423412527617505,3.731609129301626
1.8803733113508538,3.731609129301626
1.8803733113508538,3.731609129301626
2.0439181256402588,3.731609129301626
2.4673656096446557,3.731609129301626
2.219397830091105,3.731609129301626
2.0970570584307526,3.8988167355564727
1.8803733113508538,4.0585803524396855
1.8429860351239826,4.2027295193924274
1.6874768255075314,4.837446815927542
1.6665754857739812,4.950645262076482
1.6665754857739812,4.950645262076482
1.6665754857739812,4.950645262076482
1.6665754857739812,4.986466157146369
1.6665754857739812,4.950645262076482
1.6665754857739812,4.833151670052898
1.6665754857739812,3.976999788628002
1.6874768255075314,3.1224979275781743
1.9853590807542845,2.503858850891172
1.996833374161325,2.245506815243144
1.996833374161325,1.914135913657084
1.996833374161325,1.5199336492922908
1.996833374161325,1.34333630860725
1.9263328126252284,1.235414390864881
1.879237987887653,1.1510796731516701
1.764484646233828,1.030229662036021
1.6727319048773142,1.030229662036021
1.4523197734210789,0.9919824941037919
1.336813285710342,0.9467224384590865
1.336813285710342,0.9123148502183666
1.336813285710342,0.9123148502183666
1.3356386248064533,0.9123148502183666
1.2066840812205464,0.9123148502183666
1.0319366464481305,0.9123148502183666
0.980136549207447,0.9467224384590865
0.9332169587738313,0.9919824941037919
0.9332169587738313,1.0450562528477951
0.9332169587738313,1.1218635030209476
0.9332169587738313,1.3006713315772682
0.9332169587738313,1.3006713315772682
0.9332169587738313,1.3006713315772682
0.9332169587738313,1.2375957489364846
0.9332169587738313,1.2375957489364846
1.0226140419356642,1.2375957489364846
0.9388362120253285,1.2021032834439858
0.9388362120253285,1.2375957489364846
0.9388362120253285,1.2021032834439858
0.9128973495195145,1.1975246498710164
0.824091469183898,1.1975246498710164
0.824091469183898,1.1975246498710164
0.824091469183898,1.1975246498710164
0.824091469183898,1.1975246498710164
0.824091469183898,1.1733324109212497
0.824091469183898,1.1733324109212497
0.824091469183898,1.1733324109212497
0.824091469183898,1.1733324109212497
1.5579802382900612,1.1733324109212497
1.9228743730374565,1.2512848095672984
2.0022242693168537,1.2719293492790886
2.2881302107631063,1.2719293492790886
1.9938762482584664,1.2719293492790886
1.9938762482584664,1.2719293492790886
1.80609828484886,1.4628716164589288
1.8004200704800566,1.472122281611193
1.524572874873953,1.472122281611193
1.5047472389432475,1.4628716164589288
1.5047472389432475,1.4628716164589288
1.5047472389432475,1.4628716164589288
1.5047472389432475,1.4628716164589288
1.5047472389432475,1.4628716164589288
1.5047472389432475,1.4628716164589288
1.5047472389432475,1.4628716164589288
1.5047472389432475,1.463714547184158
1.7742987176257277,1.6633513061844332
1.7742987176257277,1.6633513061844332
1.8061671843075955,1.6633513061844332
1.961698865821774,1.6633513061844332
2.0684540708633623,1.7855848643769094
2.0684540708633623,1.8033436381605763
2.0684540708633623,1.8033436381605763
2.0684540708633623,1.8033436381605763
2.0684540708633623,1.8033436381605763
2.0684540708633623,1.8033436381605763
2.2007484778200275,1.8033436381605763
2.4782308579372283,1.8033436381605763
2.800695328265791,2.15961945414355
2.697033167454159,2.1903350008992777
2.697033167454159,2.0380113655644436
2.5536874754240753,1.5167169559781486
2.2191633233352213,1.3880791938987433
2.183610943608164,1.3880791938987433
1.9440173205334974,1.2646264769062268
1.8671229426449845,1.2149220794465334
1.799431704074126,1.165055361328098
1.799431704074126,1.1299027149664131
1.799431704074126,1.1299027149664131
1.799431704074126,1.1299027149664131
1.799431704074126,1.1299027149664131
1.799431704074126,1.1299027149664131
1.799431704074126,1.1299027149664131
1.8586223243767246,1.1299027149664131
2.0209955283879983,1.1299027149664131
2.280292183737284,1.2149220794465334
2.3343105884438264,1.6095026937194499
2.423653534413952,1.6095026937194499
2.423653534413952,1.6095026937194499
2.423653534413952,1.5717274701740465
2.423653534413952,1.5332380819578004
2.423653534413952,1.5332380819578004
2.423653534413952,1.5332380819578004
2.423653534413952,1.5332380819578004
2.423653534413952,1.5332380819578004
2.423653534413952,1.5332380819578004
2.7063368043741436,1.5332380819578004
2.377509620218937,1.5332380819578004
2.1129728690278307,1.5717274701740465
1.5181466257572884,1.7336223891640086
1.5181466257572884,1.5717719400338916
1.5181466257572884,1.5717719400338916
1.5181466257572884,1.5717719400338916
1.5181466257572884,1.5717719400338916
1.5181466257572884,1.5717719400338916
1.5181466257572884,1.5717719400338916
1.5181466257572884,1.5717719400338916
1.5181466257572884,1.5717719400338916
1.5325191506509832,1.5717719400338916
1.630128896895831,1.5717719400338916
2.514330558976689,1.7415779789526475
2.5682364849592436,1.8803027715264626
2.5682364849592436,2.890063108994811
2.996530212501691,3.3993415504317794
2.514330558976689,3.333683533866869
2.07669686294689,3.0071004507075085
2.0161254089739185,2.553717169038634
2.0161254089739185,2.2449492961188935
2.0161254089739185,1.8618847991025977
2.0161254089739185,1.8618847991025977
2.0161254089739185,1.8618847991025977
2.0161254089739185,1.8618847991025977
2.0161254089739185,1.8618847991025977
2.0161254089739185,1.8618847991025977
2.435151115554876,1.8618847991025977
2.5895671564527825,1.8618847991025977
2.686764094288814,1.8618847991025977
2.8034595011028736,1.9779492337315085
2.949887638957249,2.345734308560167
3.088423490322565,2.4879892448881313
2.8034595011028736,2.6900820841325666
2.8034595011028736,2.6900820841325666
2.7625204326700854,2.6900820841325666
2.8034595011028736,2.6900820841325666
2.864294107710816,2.6900820841325666
2.7625204326700854,2.6900820841325666
2.7625204326700854,3.140459992962721
2.7625204326700854,3.4762916365879835
2.7625204326700854,3.8305445659019104
2.5890560656742205,3.847205111994387
2.5890560656742205,3.847205111994387
2.5530551100934993,3.847205111994387
1.6846517019185547,4.0584721462412965
1.5730393012492798,4.233078019566358
1.5730393012492798,4.268061696788684
1.5730393012492798,4.328701416503329
1.5200129939473483,4.328701416503329
1.437624034955761,4.590255643603083
1.4091443427956984,5.040968470636009
1.4091443427956984,5.126846756158672
1.4091443427956984,5.040968470636009
1.4367270706419997,4.3133614545592955
1.4367270706419997,3.7593950648664043
1.4367270706419997,3.0289297409107463
1.4367270706419997,2.1319288700614565
1.3995193417482585,1.6324109664171373
1.3995193417482585,1.6324109664171373
1.3995193417482585,1.6324109664171373
1.466897239587035,1.4696859141083443
1.658800809299248,1.2843037219102342
1.7731501860377876,1.146116273114675
1.8795808754001788,1.08306997087908
1.8795808754001788,1.08306997087908
1.8795808754001788,1.08306997087908
1.3830297152996367,1.08306997087908
1.3830297152996367,1.08306997087908
1.299079724909439,1.08306997087908
1.299079724909439,1.08306997087908
1.299079724909439,1.08306997087908
1.299079724909439,1.1018218580967223
1.2524440933095924,1.1018218580967223
1.222171753062503,1.139492664760882
1.1149259210556148,1.160336670798026
0.965906110030321,1.3332343598610175
0.965906110030321,1.3332343598610175
1.0953509602097011,1.2658425542595078
1.085239922708872,1.2658425542595078
0.9549541479383392,1.2658425542595078
0.9475808841996505,1.4312294226679227
0.875112470747821,1.3870266031504177
0.875112470747821,1.3824016689501704
0.7416379854823397,1.3824016689501704
0.5338729486775514,1.3824016689501704
0.45422270930779984,1.3824016689501704
0.44714109973248656,1.3539546735582877
0.43562735787447787,1.3539546735582877
0.43562735787447787,1.3824016689501704
0.43562735787447787,1.3539546735582877
0.43562735787447787,1.3539546735582877
0.43562735787447787,1.3539546735582877
0.45422270930779984,1.3539546735582877
0.6518517072062204,1.3953783729247873
0.7134739985775335,1.4052560048161324
0.7395788284569166,1.4052560048161324
1.0866818827974278,1.4052560048161324
1.0765449072763744,1.6924555366928244
1.0866818827974278,1.880271985081646
1.0765449072763744,2.028705019840892
1.0866818827974278,2.15324847292391
1.0765449072763744,2.4547214039641414
0.9904481804205753,3.474778802664174
0.8299854586057599,4.373412097258628
0.7662995319063362,5.302265818764779
0.7662995319063362,5.597416763241638
0.7662995319063362,5.67777810586688
0.7662995319063362,5.714496830894118
0.7662995319063362,5.758576269903464
0.7662995319063362,5.7717505107671565
0.7662995319063362,5.786803045027035
0.7662995319063362,5.792886225232204
0.7815714479859281,5.792886225232204
0.8095965413355611,5.7717505107671565
0.8300717532088564,5.7717505107671565
0.9358996138361259,5.7717505107671565
0.998067473523211,5.769924691105412
1.0015908217675769,5.722510043856405
1.028597567958497,5.444915078862158
1.0372113341042637,5.168861678773147
1.0598671904798787,4.705745458228202
1.0991256512706942,4.527947095851828
1.1384322294733418,4.4522169664239195
1.2455381066905937,4.4522169664239195
1.4801923502933902,4.4522169664239195
1.4801923502933902,4.4522169664239195
1.4801923502933902,4.4522169664239195
1.4801923502933902,4.4522169664239195
0.9156214571914809,4.4522169664239195
0.8214635787817949,4.4522169664239195
0.8214635787817949,4.4522169664239195
0.8214635787817949,4.840763353636999
0.8214635787817949,5.206187484885536
0.8214635787817949,5.504616738691494
0.8214635787817949,5.646432900293169
0.8214635787817949,5.669687876971107
0.8214635787817949,5.644028256252156
1.0683633544206081,5.455167980878127
1.1083854449466266,5.358601074769674
1.1390155186351096,5.235292852202676
1.2152830556470673,5.235292852202676
1.2862732527591483,5.219818010854113
1.5719436010942645,5.138217627166843
1.5719436010942645,5.138217627166843
1.5719436010942645,5.09803604145214
1.6214581286307552,5.037157351459765
1.6214581286307552,5.037157351459765
1.6214581286307552,5.004633462418774
1.6214581286307552,5.004633462418774
1.6214581286307552,5.004633462418774
1.8947107596557167,5.004633462418774
1.8947107596557167,4.942258708085058
1.8947107596557167,4.738189831376463
1.8947107596557167,4.533446178262261
2.028198758043541,4.3890970475133955
2.0408763685973073,4.3890970475133955
2.0408763685973073,4.3890970475133955
2.050643413237807,4.3890970475133955
2.050643413237807,4.3890970475133955
2.164147309394997,4.3890970475133955
2.164147309394997,4.3890970475133955
2.164147309394997,4.3890970475133955
2.004057132842818,4.3890970475133955
1.5301402547669578,4.533446178262261
1.5301402547669578,4.645509206230031
1.5301402547669578,4.671207379920444
1.5301402547669578,4.773042621513464
1.5301402547669578,4.704858683601109
1.5301402547669578,4.704858683601109
1.5301402547669578,4.703687914198234
1.5301402547669578,4.426811797871538
1.8834029690200342,4.302278289811008
1.8834029690200342,4.302278289811008
2.0712531838950947,4.302278289811008
2.062270921120082,4.302278289811008
2.0724393270238766,4.302278289811008
1.9798318241116548,4.426811797871538
1.9780195547491568,4.426811797871538
1.8171126546898646,4.426811797871538
1.781808038901333,4.426811797871538
1.305377083436897,4.426811797871538
0.8873657249932757,4.893493705331231
0.8873657249932757,5.147622102432542
0.8873657249932757,5.185908443271673
0.8873657249932757,5.23596678464858
0.8873657249932757,5.378885402218869
0.8873657249932757,5.378885402218869
0.8873657249932757,5.411899717905363
0.8873657249932757,5.411899717905363
1.0023966293210562,5.3816459132250865
1.0480467368227935,5.3816459132250865
1.0480467368227935,5.3816459132250865
1.0510195131193953,5.3816459132250865
1.0480467368227935,5.378885402218869
1.0480467368227935,5.259209946509067
1.0480467368227935,5.1797579029119865
1.0480467368227935,4.957343308515541
1.0480467368227935,4.271234767880037
1.0480467368227935,3.3877944560280766
1.0480467368227935,2.482016645588929
1.0480467368227935,2.108687957889724
1.0698597374791294,2.0534869126560573
1.0698597374791294,1.6363454164028395
1.0137600138655318,1.3373588322858279
1.0698597374791294,1.3235535384637793
0.9973889437552345,1.2134862277971465
0.9821747445425685,1.166907312525992
0.9821747445425685,1.0911171563489654
0.9821747445425685,1.0911171563489654
0.9821747445425685,1.0245316510348366
0.9821747445425685,0.9467788537643785
0.9821747445425685,0.9165737787310404
0.9821747445425685,0.8951695700161971
0.9973889437552345,0.874923990916742
1.1576735662451663,0.8471263868353377
1.1558946088957152,0.8063804655684218
1.1558946088957152,0.8063804655684218
1.141584254528814,0.8024536287495649
1.141584254528814,0.7681541350906845
1.1389241654213642,0.7681541350906845
1.1389241654213642,0.7681541350906845
1.1389241654213642,0.7681541350906845
1.1389241654213642,0.7439597428711192
1.1389241654213642,0.7439597428711192
1.1389241654213642,0.6608631699007469
1.1389241654213642,0.6528983825490591
1.1389241654213642,0.6528983825490591
1.4058249975649453,0.6528983825490591
1.4100295875276272,0.6528983825490591
1.6276878030494453,0.6608631699007469
1.6315194838822402,0.6608631699007469
1.640930998002189,0.6608631699007469
1.8089436910985517,0.6608631699007469
2.0269614769143183,0.8881259990187368
2.0967866572124123,1.065115053496151
2.208317138029466,1.138764719398086
2.2894758274028058,1.2711775976178308
2.2611654087699713,1.3088938961809196
2.0269614769143183,1.3441882832920193
2.0269614769143183,1.368869390127312
2.2894758274028058,1.594738921393822
2.3765091010581796,1.8092327057673006
2.3765091010581796,1.8092327057673006
2.4323532640176895,1.7295118679957293
2.474704387879312,1.7295118679957293
2.474704387879312,1.7295118679957293
2.465961880878535,1.7295118679957293
2.2611654087699713,1.7295118679957293
2.0880096022210917,1.6391049644026516
2.4323532640176895,1.6123675327903197
2.4323532640176895,1.6123675327903197
2.4323532640176895,1.6123675327903197
2.4323532640176895,1.6123675327903197
2.465961880878535,1.6391049644026516
2.465961880878535,1.6391049644026516
2.3779240280543172,1.6391049644026516
2.376395548852266,1.6391049644026516
2.376395548852266,1.6391049644026516
2.3779240280543172,1.6391049644026516
2.461422967140416,2.161835867271638
2.3779240280543172,1.8226913018947604
2.3779240280543172,1.8226913018947604
2.3779240280543172,1.8226913018947604
2.376395548852266,1.8226913018947604
2.3377759606623223,1.7566692082555355
2.3377759606623223,1.7566692082555355
2.3377759606623223,1.7566692082555355
2.311090655316505,1.7566692082555355
2.311090655316505,1.7566692082555355
2.311090655316505,1.7566692082555355
2.311090655316505,1.7566692082555355
2.3377759606623223,1.8380594276806341
2.405268213953073,1.8637492107595022
2.405268213953073,1.8637492107595022
2.405268213953073,1.8637492107595022
2.552192735894881,1.9005469752748818
2.5651889210938257,1.8637492107595022
2.5651889210938257,1.7703585889421982
2.5672465897785255,1.6239653359101953
2.5672465897785255,1.4509348648051068
2.5651889210938257,1.4509348648051068
2.4709296692898333,1.4509348648051068
2.4709296692898333,1.4509348648051068
2.366515606324773,1.4509348648051068
2.2299410791226313,1.3120293200738007
2.2299410791226313,1.12323294044363
2.2299410791226313,1.12323294044363
2.2299410791226313,1.12323294044363
2.2299410791226313,1.1667289163319763
2.2299410791226313,1.2710900099536397
2.2299410791226313,1.2710900099536397
2.366515606324773,1.2710900099536397
2.397897954817844,1.2710900099536397
2.397897954817844,1.2710900099536397
2.470779628363796,1.2710900099536397
2.6401150115858276,1.9905403093217349
2.6401150115858276,1.6762043102670117
2.6401150115858276,1.7164417457812
2.48320455143927,1.6570685764417812
2.48320455143927,1.6570685764417812
2.48320455143927,1.6570685764417812
2.48320455143927,1.6570685764417812
2.48320455143927,1.6570685764417812
2.48320455143927,1.6570685764417812
2.48320455143927,1.6570685764417812
2.48320455143927,1.6570685764417812
2.48320455143927,1.6570685764417812
2.5220440412419705,1.7770566782466581
2.6555512760701125,1.9790641717939506
2.802526791136368,2.097256680904518
2.9385486195900516,2.1009451179299865
2.894798593024358,2.190519730370674
2.894798593024358,2.2527230687020925
2.894798593024358,2.2628400251956844
2.8426587317022936,2.304292854950051
2.894798593024358,2.304292854950051
2.894798593024358,2.304292854950051
2.894798593024358,2.337635454219138
2.894798593024358,2.5695033121269737
2.894798593024358,2.7152305096211324
2.894798593024358,2.4861130339332322
2.894798593024358,2.337635454219138
2.90747085170843,2.337635454219138
2.90747085170843,2.337635454219138
2.90747085170843,2.337635454219138
3.0634771776289815,2.337635454219138
3.105912110167768,2.4861130339332322
3.105912110167768,2.4861130339332322
2.610866385978602,2.4861130339332322
2.4416714557166403,2.4861130339332322
2.4416714557166403,2.993679854247493
1.9085442973297098,3.0485421906301267
1.66382652920906,3.7223450028473066
1.66382652920906,3.851424438053702
1.66382652920906,4.267122857708491
1.6202576311361023,4.3526606019087
1.4126700137793753,4.593222342353905
1.3630747609834388,4.973624897385213
1.2889412922716723,4.973624897385213
1.2889412922716723,4.72130493048274
1.3630747609834388,4.285945777254025
1.3630747609834388,3.3996267577246386
1.3630747609834388,2.1371059562913244
1.2948675924856565,1.6879515750834597
1.2948675924856565,1.6443456682037663
1.2948675924856565,1.6443456682037663
1.2948675924856565,1.5387658950656995
1.4488827411945597,1.4620704649229883
1.4488827411945597,1.3812094847343375
1.4488827411945597,1.1638334847236815
1.4488827411945597,0.9858215734368906
1.4488827411945597,0.7479398253419437
1.3236996935179186,0.7479398253419437
1.1937479967080673,0.7479398253419437
1.159697872348767,0.7479398253419437
1.159697872348767,0.7479398253419437
1.159697872348767,0.7479398253419437
1.159697872348767,0.7479398253419437
1.159697872348767,0.7479398253419437
1.0341071400013206,0.9858215734368906
1.022257417573166,1.1479803379346363
0.9674197055742586,1.2615523289020543
0.9267870987819149,1.355960195988392
0.9267870987819149,1.355960195988392
0.9267870987819149,1.3851765625105827
0.9109630351922254,1.3851765625105827
0.8428662253698109,1.3851765625105827
0.8337308374081869,1.3851765625105827
0.8223573486792828,1.3155528275823904
0.6239132264705355,1.3155528275823904
0.46166180808682794,1.3155528275823904
0.46166180808682794,1.3155528275823904
0.46166180808682794,1.3155528275823904
0.46166180808682794,1.3155528275823904
0.46166180808682794,1.405991773518116
0.46166180808682794,1.405991773518116
0.46166180808682794,1.405991773518116
0.49735062229866506,1.405991773518116
0.6357349633443414,1.4383505953401179
0.8870040383420504,1.4383505953401179
1.168382977663036,1.4383505953401179
1.18178760925475,1.4383505953401179
1.0314238610605149,1.5421608492817926
1.168382977663036,1.7366938564926904
1.168382977663036,2.0517966238270917
0.9707648634977111,2.3394152589316857
0.9004589205936263,2.768783035678222
0.7395725891359755,4.407815889657122
0.7342239583610419,5.130941830919146
0.7342239583610419,5.499497466558775
0.7342239583610419,5.615945487230342
0.7342239583610419,5.732167083232662
0.7342239583610419,5.797582290657255
0.7342239583610419,5.789528507550242
0.7342239583610419,5.785108157562527
0.7852669631937441,5.7746338343350825
0.8101880790966501,5.748873232591545
0.8101880790966501,5.718694583411557
0.8185348311848568,5.606984725974242
0.9148937248148237,5.544643103966674
1.0062965172321356,5.531374590504193
1.0104092948548113,5.531374590504193
1.1768497176767925,5.4742560762787535
1.2321927040666059,5.457459031070908
1.2321927040666059,5.438511658653228
1.2321927040666059,5.370212858370007
1.2007151187100533,5.370212858370007
1.2007151187100533,5.290175964875734
1.2007151187100533,5.289787193585979
1.2257687877238312,5.289787193585979
1.2257687877238312,5.286413382321241
1.2257687877238312,5.286413382321241
1.2257687877238312,5.286413382321241
1.2257687877238312,5.286413382321241
1.2257687877238312,5.286413382321241
1.2257687877238312,5.272248404065671
1.2257687877238312,5.241845653317126
1.2517061992586618,5.1931382705674825
1.2517061992586618,5.1931382705674825
1.3302485868523186,5.241845653317126
1.3342595779670239,5.241845653317126
1.3342595779670239,5.241845653317126
1.3342595779670239,5.178043871929209
1.4355784222401127,5.122546376862382
1.6202234896389547,5.0587820309695255
1.6679279509475642,5.018594620527259
1.681874818350137,4.980781390453683
1.681874818350137,4.980781390453683
1.7073382585249912,4.980781390453683
1.7073382585249912,4.980781390453683
1.7073382585249912,4.980781390453683
1.681874818350137,4.980781390453683
1.6200000985194736,4.980781390453683
1.6200000985194736,5.018594620527259
1.6200000985194736,5.030650944395044
1.6200000985194736,5.030650944395044
1.6200000985194736,5.090002178004457
1.6200000985194736,5.030650944395044
1.6200000985194736,5.01144885699464
1.6200000985194736,5.01144885699464
1.6253210490329302,5.01144885699464
1.7836153086454243,5.01144885699464
1.773276076898727,5.01144885699464
1.773276076898727,5.01144885699464
1.7452728393403933,5.01144885699464
1.7452728393403933,5.01144885699464
1.7452728393403933,5.028135777629895
1.724052491804659,5.028135777629895
1.724052491804659,5.132496174538113
1.671942058720025,5.189809588275042
1.5472936118687255,5.194510043914278
1.5153496265984454,5.266459767161667
1.3840960207976922,5.266459767161667
1.3840960207976922,5.266459767161667
1.3522674684965061,5.266459767161667
1.3271886272505775,5.303652291708898
1.2141179515200144,5.380124747185628
1.1502115394931978,5.457103657846288
1.1502115394931978,5.457103657846288
1.1502115394931978,5.450186322355213
1.110603836218604,5.470614095579332
1.0999127119226213,5.457103657846288
1.0859857914745144,5.450186322355213
1.0859857914745144,5.369820323854939
1.0859857914745144,5.369820323854939
1.0859857914745144,5.368212194085244
1.0859857914745144,5.368212194085244
1.0859857914745144,5.335903580926817
1.1669243804853262,5.298381916504595
1.1669243804853262,5.27497702079857
1.1669243804853262,4.672031915839592
1.3508030934663677,4.378744661142384
1.5907633733902735,4.214964024508904
1.75062283444566,4.05025661885894
1.924225799075871,3.9999980709760248
2.0500132103256083,3.6941105289177294
2.123588103302814,3.052898911299293
2.340594362287319,2.5425480545572614
2.136762486124332,2.3644022900663493
2.136762486124332,1.9224022425043514
2.070491436682989,1.7235098945410925
1.6889053034640278,1.6294965465048838
1.6889053034640278,1.3320388118287438
1.507552101327603,1.2276271662978016
1.3389107111718554,1.0629623610250083
1.3313751680166883,1.054493549842375
1.3119773947917444,1.0344522812378327
1.209560711755602,1.010458675395109
1.209560711755602,1.010458675395109
1.209560711755602,0.9983551040889466
1.209560711755602,0.9983551040889466
1.1067396741664894,0.9983551040889466
1.0400886188279603,0.9983551040889466
0.829271495381134,1.010458675395109
0.829271495381134,1.010458675395109
0.829271495381134,1.0240197015340469
0.829271495381134,1.0240197015340469
0.9697299458348047,1.0286410772093815
0.9697299458348047,1.0703169495502711
0.9697299458348047,1.0653120313331252
0.9697299458348047,1.0653120313331252
0.9697299458348047,1.0286410772093815
0.9969379426286263,0.8805647025970209
1.104165402130385,0.8487534289493646
1.1097554801946676,0.8252952625307727
1.1201121470424682,0.8252952625307727
1.1201121470424682,0.8252952625307727
1.192993156519333,0.8252952625307727
1.380934737441455,0.8252952625307727
1.4038015229413938,0.8252952625307727
1.4781086494307951,0.8252952625307727
1.5360865779598587,0.8805647025970209
1.5360865779598587,0.9462166096007841
1.6175710605712368,0.964980964136879
1.9998982810893242,1.0220057133797622
1.8997557350436305,1.0428472048489732
1.845878113184047,1.0698823066000338
1.5293990346553776,1.0698823066000338
1.5293990346553776,1.0698823066000338
1.5293990346553776,1.0220057133797622
1.5293990346553776,0.7825862453873541
1.5293990346553776,0.7825862453873541
1.5293990346553776,0.7825862453873541
1.5293990346553776,0.7825862453873541
1.5293990346553776,0.7825862453873541
1.5293990346553776,0.7825862453873541
1.5766044300367408,0.7825862453873541
1.8146482296815944,0.7825862453873541
1.856101814908322,0.9055976132474398
1.9225707855378977,1.027646538197712
2.162545031011676,1.0571840789153868
2.162545031011676,1.0815444186531706
2.2321617050683407,1.4424977646644528
2.2321617050683407,1.5356871722060124
2.2929678970338405,1.9172707090584455
2.452209185762103,2.995796635623938
2.452209185762103,3.410531617276516
2.452209185762103,3.1487028340499577
2.452209185762103,3.1487028340499577
2.261602961199201,3.1487028340499577
2.1444397127422477,3.1487028340499577
1.9336754458374523,3.1487028340499577
1.9336754458374523,3.1487028340499577
1.973506158375625,3.1487028340499577
1.806759936618618,3.1487028340499577
1.806759936618618,3.1487028340499577
1.806759936618618,3.1487028340499577
1.806759936618618,3.5522050321211958
1.806759936618618,3.1880883237070416
1.7425310979335562,2.6260412090043634
1.7361135006070503,2.0691754371679734
1.5125694348445282,1.3762996767575093
1.3226961642842197,1.3133413935595493
1.235767883130983,1.1653461184899776
1.107561078556387,0.9687834580805811
1.107561078556387,0.9334336617736123
1.107561078556387,0.804318948176977
1.107561078556387,0.804318948176977
1.107561078556387,0.804318948176977
1.107561078556387,0.804318948176977
1.107561078556387,0.804318948176977
1.107561078556387,0.804318948176977
1.2175967030792367,0.804318948176977
1.2322543573512923,0.804318948176977
1.2684464081754032,0.8365826804872373
1.2772177102101376,0.8581393153717154
1.2996550117329153,0.866930323791158
1.2996550117329153,0.9106694213449954
1.5018123103795962,1.1141432331852608
1.7462474432271515,1.1394910040346773
1.7462474432271515,1.3087586748076514
1.8194682414501135,1.4386781799957977
1.8323143626194711,1.4734089208367767
1.9092794800901058,1.4934766563561934
2.115310514306837,1.5064668899080913
2.5670424303082373,1.5064668899080913
2.6058591836938416,1.6519279052099507
2.7503025793415588,1.9413593991333016
2.8403142707422733,2.006750200810872
3.292988071683451,2.219953490418682
3.292988071683451,2.219953490418682
3.292988071683451,2.219953490418682
3.292988071683451,2.219953490418682
3.3117909305835176,2.401589004818458
3.3413584439592015,2.5526965429044357
3.3662199046123606,2.4737193174688286
3.3662199046123606,2.4737193174688286
3.3413584439592015,2.5526965429044357
3.3117909305835176,2.5526965429044357
3.3270015401459103,2.722550206249579
3.3413584439592015,3.049037639097033
3.3270015401459103,3.049037639097033
3.1863274751154074,3.049037639097033
3.0878477790889467,3.049037639097033
3.0878477790889467,3.4139520242654133
3.0878477790889467,3.495396078795391
3.0878477790889467,3.4402708696822426
2.8325994225949596,2.7799712608227685
2.8325994225949596,2.7799712608227685
2.8325994225949596,2.7799712608227685
2.8325994225949596,2.7799712608227685
2.8325994225949596,2.7799712608227685
2.8325994225949596,2.7799712608227685
2.909779471759377,2.7799712608227685
2.781927803123468,2.7799712608227685
2.352113881221477,2.7799712608227685
2.2356986957733422,2.7799712608227685
2.2356986957733422,3.079511383159285
2.2356986957733422,3.797377760479267
2.2356986957733422,4.035719094728447
2.0277147994115965,4.342276606540071
2.0187030668511636,4.3978195205919635
1.9001906556595285,4.593937461007992
1.8653049869117129,4.683651201784796
1.6956481691738028,4.73392774960031
1.496555097849831,4.95422009348148
1.4038339224334397,4.983838700347604
1.3380471626397712,5.063700904470353
1.3380471626397712,5.047922014910353
1.3380471626397712,4.983838700347604
1.3380471626397712,4.81369323395082
1.3380471626397712,4.621988508051378
1.5619163729059622,3.7917522374593795
1.5619163729059622,3.7917522374593795
1.5619163729059622,3.7917522374593795
1.3380471626397712,3.7917522374593795
1.3380471626397712,3.7917522374593795
1.3380471626397712,3.7917522374593795
1.3003214607265372,3.7917522374593795
1.3003214607265372,3.7917522374593795
1.3003214607265372,3.7917522374593795
1.1072588997041302,3.363968323998543
0.8466480711595898,2.86834769269104
0.8373916394996933,2.122771653511972
0.8229638698855951,1.8211167736420284
0.7940900803691276,1.6644218352810873
0.7761047114058295,1.6014234188158072
0.7329820378685786,1.56205041111616
0.7329820378685786,1.56205041111616
0.46102691398461915,1.5472749729207909
0.46102691398461915,1.5428770750775112
0.46102691398461915,1.5428770750775112
0.46102691398461915,1.5428770750775112
0.46102691398461915,1.5428770750775112
0.46102691398461915,1.5428770750775112
0.46102691398461915,1.5428770750775112
0.7281897178574526,1.5428770750775112
1.081100534853095,1.5740650105055574
1.3151288327702109,1.6123199643576342
1.3151288327702109,1.7628380039210423
1.3886011716484223,1.8113303487380494
1.439373244787395,2.0564743748951084
1.5225601059750855,2.2151784090074838
1.6038041454760812,2.7006643553190783
1.6038041454760812,2.4751243378089587
1.6038041454760812,2.023747739827747
1.6038041454760812,1.5390224001900272
1.6038041454760812,1.374191248518086
1.6044332829875099,1.2605315711090723
1.9061297977547838,1.157367477712692
1.9372664058968405,1.0892987045274134
2.0171450363643886,1.0821378027548543
2.0171450363643886,1.0757836584289917
2.0171450363643886,1.0757836584289917
2.0171450363643886,1.0757836584289917
2.0171450363643886,1.0757836584289917
2.094421745794031,1.0757836584289917
2.2108161409390594,1.0757836584289917
2.230471809792708,1.0821378027548543
2.370110028251267,1.0757836584289917
2.299917539389896,1.0821378027548543
2.230471809792708,1.1000004009340572
1.8425652713426692,1.126717448307844
1.41749041198797,1.1493502357621912
1.41749041198797,1.1493502357621912
1.41749041198797,1.1493502357621912
1.41749041198797,1.1493502357621912
1.41749041198797,1.1493502357621912
1.41749041198797,1.1493502357621912
1.41749041198797,1.1493502357621912
1.41749041198797,1.3307457617671496
1.41749041198797,1.3239650334436475
1.8020917803558714,1.3239650334436475
1.8020917803558714,1.3239650334436475
1.8020917803558714,1.3239650334436475
1.8020917803558714,1.3239650334436475
1.8020917803558714,1.2368612072738108
1.8020917803558714,1.2368612072738108
1.8020917803558714,1.2368612072738108
1.8020917803558714,1.2368612072738108
1.8020917803558714,1.2368612072738108
1.8020917803558714,1.2368612072738108
1.956574919086003,1.2468076905888694
1.9755360207934873,1.2208099135296229
1.9755360207934873,1.2208099135296229
1.8964400643926662,1.2208099135296229
2.1501326668692813,1.1370682269646908
2.1501326668692813,1.1370682269646908
2.1501326668692813,1.0292890214074908
2.1501326668692813,1.0292890214074908
2.1501326668692813,1.0292890214074908
2.1501326668692813,1.0292890214074908
2.1501326668692813,1.0292890214074908
2.1501326668692813,1.0292890214074908
2.1501326668692813,1.2360897645679227
2.1843663984966586,1.2437834700700756
2.659508308051529,1.2702773633189675
2.801456697396571,1.7355947951165545
2.801456697396571,2.0268896022602747
2.7763779133533557,2.279881546759569
2.66889093689575,2.376435248150021
2.659508308051529,2.376435248150021
2.5769386336233966,2.376435248150021
2.420433057630065,2.376435248150021
2.290231439120488,2.475510135145818
2.290231439120488,3.4820981735756096
2.290231439120488,4.374804189942598
2.2399512180637067,4.442752042215311
2.149582968205959,4.602678412107178
2.0270854639063685,4.6220052521901
1.6378803964244044,4.6220052521901
1.4170784403119352,4.825263234942613
1.3374595259181155,4.839899265519329
1.2262857288543292,4.839899265519329
1.1931086478113555,5.024193337532667
1.0027365098484362,5.03497249815886
0.8125994373379882,5.249682406835166
0.8125994373379882,5.418910212627399
0.8125994373379882,5.451114217181321
0.7747842263322485,5.46551507172725
0.7644942994398166,5.4913487185318886
0.7644942994398166,5.518760142776753
0.7644942994398166,5.557951180275245
0.7421429673298849,5.618045234026869
0.7421429673298849,5.620629713947554
0.7644942994398166,5.620629713947554
0.7421429673298849,5.658597042092745
0.7169821052955206,5.666372167617379
0.6413889427479046,5.666372167617379
0.6413889427479046,5.736238873247444
0.7071071919158503,5.733094177790475
0.7071071919158503,5.733094177790475
0.7071071919158503,5.723696874027196
0.7071071919158503,5.733094177790475
0.7071071919158503,5.619637563042592
0.7071071919158503,5.603259012353032
0.7071071919158503,5.572061741944257
0.9478356458210673,5.52278468693839
0.9671573070168538,5.52278468693839
0.9822655837009009,5.472422619216606
1.0706000117564725,5.4390181590803
1.0706000117564725,5.397101934534214
1.2506284434618313,5.380154393808432
1.28736488833479,5.380154393808432
1.3774981815459795,5.222892172199857
1.4481995366071616,4.979113800416664
1.6815529787392347,4.773177041708136
1.7100428340453782,4.549099953363877
1.7100428340453782,3.588017577407802
1.7100428340453782,3.2841262842193806
1.7100428340453782,3.2841262842193806
2.160351746151808,3.2841262842193806
2.5441589977697383,3.2841262842193806
2.6201717980552757,3.2841262842193806
2.8371645406880615,2.970691979624908
2.624984250033821,2.576000966495697
2.6201717980552757,2.0422745787848045
2.385654435278545,1.87873212136387
2.385654435278545,1.8500827946775031
2.2891655628866134,1.7792315835872685
2.2891655628866134,1.480606781743249
2.213115129620901,1.37759493179747
2.1698883214183735,1.37759493179747
2.1698883214183735,1.37759493179747
2.1698883214183735,1.37759493179747
2.1698883214183735,1.37759493179747
2.2891655628866134,1.37759493179747
2.2891655628866134,1.37759493179747
2.2891655628866134,1.37759493179747
2.2891655628866134,1.480606781743249
2.590008069697102,1.5178567006462753
2.6993152065017063,1.5577626315102935
2.4921728387799535,1.6053553509167455
2.6993152065017063,1.565650307875717
2.541143043121103,1.6108667663513265
2.3893116659268374,1.7085006376277323
2.3893116659268374,1.6108667663513265
2.3893116659268374,1.565650307875717
2.3893116659268374,1.5636774557532547
2.3893116659268374,1.5636774557532547
2.3893116659268374,1.5636774557532547
2.3893116659268374,1.5636774557532547
2.3893116659268374,1.5636774557532547
2.5089323037765197,1.5636774557532547
2.5089323037765197,1.5476109913481713
2.5126107433544913,1.4530519708897442
2.62278861337939,1.4530519708897442
2.62278861337939,1.5476109913481713
2.9823084062503895,1.8171774131764296
3.018430302255791,2.102358718263047
3.018430302255791,2.102358718263047
3.0669438638167126,2.102358718263047
3.018430302255791,2.102358718263047
3.018430302255791,2.102358718263047
2.9823084062503895,2.102358718263047
3.018430302255791,2.3639860587287123
3.1619480219592564,2.4750951046560172
3.034431910138713,2.4750951046560172
3.034431910138713,2.4750951046560172
3.034431910138713,2.574463966468484
3.034431910138713,2.996103998979801
3.034431910138713,3.2987068557388723
3.034431910138713,3.231475969672191
3.1619480219592564,2.870933170578402
3.075057266958356,2.870933170578402
2.690034210183267,2.870933170578402
2.690034210183267,2.870933170578402
2.690034210183267,2.870933170578402
2.665774106349363,2.870933170578402
2.6479235896217244,2.867348892489092
2.589067871450275,2.867348892489092
2.589067871450275,2.867348892489092
2.589067871450275,2.867348892489092
2.589067871450275,3.308309597049032
2.589067871450275,3.4011895581981553
2.589067871450275,3.4011895581981553
2.6479235896217244,3.4011895581981553
2.6479235896217244,3.4011895581981553
2.6479235896217244,3.4011895581981553
2.655785718407314,3.449224023322664
2.69367980270195,3.4011895581981553
3.035219089950222,2.8469984466013214
3.035219089950222,2.8469984466013214
3.035219089950222,2.8469984466013214
3.035219089950222,2.8469984466013214
3.0811920592143434,2.8469984466013214
3.266851404205326,2.8469984466013214
2.967862463290595,2.8469984466013214
2.967862463290595,2.8469984466013214
2.855828669362267,2.8469984466013214
2.855828669362267,2.8469984466013214
2.855828669362267,3.3724439422657513
2.8151423150686288,2.9444097424821583
2.719977214979083,2.750663257528496
2.2769762211312905,2.2565866618812063
2.247118145223597,2.137300103225442
2.247118145223597,2.0592432858091207
2.247118145223597,1.897410318432679
2.329243452849034,1.6717531105935863
2.329243452849034,1.6717531105935863
2.329243452849034,1.6717531105935863
2.329243452849034,1.6717531105935863
2.329243452849034,1.6717531105935863
2.329243452849034,1.6717531105935863
2.3638917751113313,1.6717531105935863
2.376724191327764,1.6717531105935863
2.3924706538556655,1.6717531105935863
2.3638917751113313,1.7589483957616767
2.376724191327764,1.8175639899713987
2.167219330171066,2.680844293175298
2.167219330171066,3.336570432335602
2.167219330171066,3.5713406257319367
1.9397162921997264,3.5831066668310667
1.9397162921997264,3.692115424064947
1.9397162921997264,3.9237905029140734
1.9397162921997264,4.673525024031716
1.9397162921997264,4.787785651132948
1.9397162921997264,4.673525024031716
2.1323029229312835,4.673525024031716
2.1323029229312835,4.673525024031716
2.1323029229312835,4.673525024031716
1.9397162921997264,4.673525024031716
1.7213119284359837,4.673525024031716
1.7213119284359837,4.673525024031716
1.7176915539057223,4.673525024031716
1.7176915539057223,4.673525024031716
1.7176915539057223,4.787785651132948
1.7176915539057223,4.056490671017447
1.7176915539057223,3.1122623524185338
1.661740825070343,2.445513889676737
1.6536438525158565,1.6743765060140727
1.6536438525158565,1.373528431018766
1.7176915539057223,1.2412118709452975
1.7176915539057223,1.2412118709452975
1.7176915539057223,1.2412118709452975
1.7661962724455484,1.2412118709452975
1.7661962724455484,1.2412118709452975
1.7661962724455484,1.2412118709452975
1.7661962724455484,1.2412118709452975
1.7661962724455484,1.2412118709452975
1.7766161777925868,1.2412118709452975
1.8001745957787048,1.2702172993588894
1.8001745957787048,1.374499992503499
1.8310200282030955,1.5161717120815592
1.8310200282030955,1.6787322153291069
1.8310200282030955,1.771250009044611
1.7825541055768737,1.8690533456331437
1.6563869511721305,2.005395743156229
1.494094133949409,2.706041427015253
1.3915953857528187,3.3425844412396843
1.3915953857528187,3.8029452734224205
1.3915953857528187,4.627121634634033
1.3915953857528187,4.261463875587982
1.3915953857528187,3.7135037536547553
1.4048533664455976,2.876647532595111
1.333932576969941,1.9165869148067887
1.3075630740448245,1.5717840464385753
1.3075630740448245,1.5717840464385753
1.3075630740448245,1.5717840464385753
1.400542732136597,1.5479765075707177
1.4048533664455976,1.5469177238991025
1.4671913844744005,1.5469177238991025
1.4671913844744005,1.5469177238991025
1.4671913844744005,1.502770835498353
1.4671913844744005,1.338094585810164
1.4671913844744005,1.338094585810164
1.3942941649624117,1.3650952688253208
1.3942941649624117,1.3650952688253208
1.3942941649624117,1.338094585810164
0.8259564979714462,1.3087190886014557
0.8259564979714462,1.3087190886014557
0.8259564979714462,1.2473127403063196
0.8259564979714462,1.1239162883833609
0.8259564979714462,1.1239162883833609
0.8259564979714462,1.1239162883833609
0.8259564979714462,1.1239162883833609
0.8259564979714462,1.1239162883833609
0.8259564979714462,1.1239162883833609
0.952212899161388,1.1239162883833609
0.9684878111400098,1.1239162883833609
0.988949647905662,1.366134682007102
0.952212899161388,1.3948650851492945
0.9251569148472127,1.379253818920285
0.9175016296669306,1.379253818920285
0.782661831331779,1.366134682007102
0.640234645144082,1.360469083015405
0.46220272173539695,1.360469083015405
0.46220272173539695,1.360469083015405
0.4289868371695273,1.360469083015405
0.4289868371695273,1.360469083015405
0.4289868371695273,1.379253818920285
0.4289868371695273,1.379253818920285
0.4289868371695273,1.379253818920285
0.4289868371695273,1.3895784218220812
0.7224177507049819,1.4495037180097479
0.8984789041039837,1.5269077993434301
0.7347576863536689,1.577385614740474
0.7826646147004599,1.7284134636705948
0.8210365632566446,1.8941070023072133
0.9425894440013369,2.1343689525593343
0.9425894440013369,3.0451673037617084
0.9425894440013369,4.596843039399122
0.9425894440013369,4.3646710975214065
0.883946461806382,3.1973117611815143
0.8303324112806163,2.150925829122849
0.7686406365023303,1.8198531007289553
0.7347576863536689,1.4410463007146752
0.7389781558156364,1.4410463007146752
0.7389781558156364,1.4410463007146752
0.7389781558156364,1.4410463007146752
0.7389781558156364,1.4410463007146752
0.7389781558156364,1.4410463007146752
0.7389781558156364,1.4410463007146752
0.7389781558156364,1.4410463007146752
0.7389781558156364,1.4410463007146752
0.83090104885837,1.6826845559885648
0.9999776552210669,1.8574945601566928
1.0578328034911084,2.1399722828508567
1.1314662927554888,2.9168405593065656
1.1225793199084313,4.146916059326349
1.057535353015494,5.128661822888934
0.9999776552210669,5.487759112300402
0.977070252363535,5.619266296425932
0.977070252363535,5.660389369382429
0.9893016405013195,5.6637032676320995
0.9893016405013195,5.627602167199634
0.9893016405013195,5.601701137378156
0.9893016405013195,5.601701137378156
0.9893016405013195,5.569999771351161
0.9893016405013195,5.543630128514255
1.0838739758795946,5.543630128514255
1.0852567069690593,5.52585545797021
1.0838739758795946,5.52585545797021
1.0838739758795946,5.53514424244388
1.0948973691836388,5.52585545797021
1.0948973691836388,5.52585545797021
1.0948973691836388,5.430074273867509
1.1707913092659992,5.411812839057663
1.1707913092659992,5.411812839057663
1.1707913092659992,5.408979302233893
1.1707913092659992,5.4038846825555025
1.1707913092659992,5.2413723717395895
1.1707913092659992,4.9527521083300305
1.2285387442006925,4.580366119962059
1.2631399087020163,4.157327371687174
1.2780312614957676,4.154829598115329
1.2816677990148337,4.14722073585963
1.4426895198278902,4.14722073585963
1.5330424617467366,4.14722073585963
1.7141578276940215,4.14722073585963
1.5330424617467366,4.14722073585963
1.6165636484530976,4.14722073585963
1.7337688055669451,4.14722073585963
1.738412194390273,4.14722073585963
1.738412194390273,4.348772403747333
1.738412194390273,4.437004684621403
1.738412194390273,4.438840455057087
1.738412194390273,4.636194168604243
1.738412194390273,4.673771901569586
1.738412194390273,4.673771901569586
1.738412194390273,4.560398259010682
1.738412194390273,4.560398259010682
1.738412194390273,4.560398259010682
1.738412194390273,4.560398259010682
1.8656526609053399,4.560398259010682
1.8556458155117845,4.560398259010682
1.8556458155117845,4.403391232440248
1.8556458155117845,4.403391232440248
1.8556458155117845,4.403391232440248
1.8556458155117845,4.586701468158393
1.8556458155117845,4.586701468158393
1.8556458155117845,4.500693951907467
1.8556458155117845,4.500693951907467
1.8556458155117845,4.500693951907467
1.8556458155117845,4.500693951907467
1.8839828356642465,4.500693951907467
1.9335009950956479,4.500693951907467
1.396831831925199,4.590321660742206
1.396831831925199,4.590321660742206
1.396831831925199,4.590321660742206
1.396831831925199,4.644912383275966
1.396831831925199,4.792042830867696
1.396831831925199,4.967395495098571
1.396831831925199,5.0396583048977845
1.396831831925199,4.967395495098571
1.4867233000381024,4.967395495098571
1.4867233000381024,4.967395495098571
1.4867233000381024,4.967395495098571
1.5246503415029864,4.967395495098571
1.5897297642337909,4.962117803924636
1.5897297642337909,4.9440220110510245
1.5897297642337909,4.829271882281767
1.5897297642337909,4.714383478483834
1.731353429784774,4.51846257056041
1.9719772195520842,4.311439292692651
1.9719772195520842,4.2505506847850425
1.9895774905624308,4.2505506847850425
1.9895774905624308,4.2505506847850425
1.9895774905624308,4.2505506847850425
2.2806829500134422,4.2505506847850425
2.5701698199853125,4.2505506847850425
2.5701698199853125,4.2505506847850425
2.5884760703137744,3.1635466964481114
2.3429453457343428,2.3844801497361474
2.2806829500134422,2.2243919017310945
2.139147147123973,1.8128881185498569
1.862701870494262,1.7870887972593243
1.6378096143703673,1.691056738313853
1.6378096143703673,1.5753847756289108
1.6378096143703673,1.4938307008866178
1.5439225364373548,1.4443410540404653
1.5179162059929774,1.4409227544082872
1.4504101388113235,1.3687917435028254
1.3161362220187667,1.3215081752091342
1.3161362220187667,1.3124572382003927
1.3161362220187667,1.277043490688821
1.3161362220187667,1.277043490688821
1.3161362220187667,1.1231495305665409
1.3274673710436171,1.0435636969211959
1.3274673710436171,1.0269691283806632
1.3274673710436171,1.0269691283806632
1.3274673710436171,0.9825112973657539
1.388669717349045,0.9825112973657539
1.388669717349045,0.9825112973657539
1.388669717349045,0.9815101300999456
1.2555117752982725,0.9136569668429891
1.2200433476251764,0.8248734997392436
1.2200433476251764,0.7671332266587773
1.2200433476251764,0.7671332266587773
1.1321008154861794,0.7671332266587773
1.0943489200231116,0.7671332266587773
1.0943489200231116,0.8248734997392436
1.0943489200231116,0.931109257831313
1.0943489200231116,0.7967935569236615
1.0943489200231116,0.7967935569236615
1.0943489200231116,0.7967935569236615
1.0943489200231116,0.7967935569236615
1.1667111579829041,0.8528487159020552
1.1667111579829041,0.8879081767355745
1.1667111579829041,0.8879081767355745
1.1667111579829041,0.8879081767355745
1.283573474111646,0.8879081767355745
1.318589981457734,0.8879081767355745
1.3534104414094081,0.8879081767355745
1.3573027689286081,0.9487044315904817
1.3733568695750167,1.038823103302596
1.6967709493746446,1.1413523388224853
2.2006236851756227,1.145081031569914
2.2006236851756227,1.1518489383358554
2.2098240430235485,1.3189424364882887
2.250583574317002,1.3404908150791217
2.371904280744958,1.3821986440088874
2.511159395455095,1.3821986440088874
2.511159395455095,1.3821986440088874
2.656807117468044,1.5278932559283882
2.6800354504365664,1.5332380819576832
2.6800354504365664,1.6046797232702323
2.6800354504365664,1.6046797232702323
2.6800354504365664,1.6046797232702323
2.556382779035802,1.6046797232702323
2.6453416548375848,1.9150001760326536
2.7316649665967327,2.0676013056109612
2.6453416548375848,2.2473582793647293
2.4347147614121782,2.2473582793647293
2.2437146594853523,2.1803293038453826
2.2437146594853523,2.1860204416712965
2.2437146594853523,2.1062306269491695
2.2437146594853523,2.1062306269491695
2.2437146594853523,2.1062306269491695
2.2437146594853523,2.1062306269491695
2.050860011572308,2.1062306269491695
2.050860011572308,2.1062306269491695
2.0352549918224163,2.1062306269491695
1.7975441376360868,1.8824708569357635
1.7760515259103762,1.7451608027644714
1.7975441376360868,1.5124915637750285
1.2041726001413715,1.5124915637750285
1.2041726001413715,1.5124915637750285
1.2041726001413715,1.5124915637750285
1.2041726001413715,1.5124915637750285
1.2041726001413715,1.5124915637750285
1.2041726001413715,1.5124915637750285
1.2041726001413715,1.5124915637750285
1.1719324885592044,1.5124915637750285
1.1985554278354755,1.5198112061853968
1.2041726001413715,1.5479132409593452
1.2795118860610473,1.765496508496862
1.2795118860610473,1.9845001992816518
1.2795118860610473,2.6297804083229455
1.2795118860610473,2.6297804083229455
1.2795118860610473,2.6297804083229455
1.2795118860610473,2.102962415595269
1.2795118860610473,1.4206391621644203
1.2795118860610473,1.2991602349294613
1.2809227107163792,1.2991602349294613
2.0627553683973074,1.2991602349294613
2.2275250138890015,1.2991602349294613
2.5745881212116073,1.2991602349294613
2.608508868283653,1.2991602349294613
2.608508868283653,1.2991602349294613
2.608508868283653,1.2991602349294613
2.608508868283653,1.4206391621644203
2.608508868283653,1.6092648844537378
2.6451704141432946,1.6851580364095982
2.6451704141432946,1.7299243803769468
2.8951859424196935,1.7299243803769468
2.679768510262422,1.7299243803769468
2.608508868283653,1.7299243803769468
2.6464263746952192,2.0633476072188626
2.8951859424196935,2.6465494646426277
2.6464263746952192,2.969414651657709
2.4894255112787946,2.969414651657709
2.4059115642269657,2.969414651657709
2.071391500672558,2.8223921744715903
1.9807953496873414,2.3348071801262673
1.6928636924106357,1.7911509331724145
1.5925503192421337,1.2886636725541705
1.5925503192421337,1.2198839927152312
1.5925503192421337,1.2198839927152312
1.5925503192421337,1.2198839927152312
1.5925503192421337,1.2198839927152312
1.5925503192421337,1.2198839927152312
1.6928636924106357,1.2198839927152312
1.6928636924106357,1.2198839927152312
1.7434152912050178,1.2198839927152312
1.8867142689010838,1.2198839927152312
2.076238794388077,1.4009578815628352
2.147899439594508,1.616375514675063
2.5589585956596874,1.9496547439257919
2.5589585956596874,1.9607453658491103
2.5589585956596874,1.9607453658491103
2.5589585956596874,1.9607453658491103
2.5589585956596874,1.9607453658491103
2.5589585956596874,1.9607453658491103
2.801630133855834,1.9607453658491103
2.822660865153237,1.9607453658491103
2.8681279547662832,2.1570896996876017
2.997735291221308,2.546106416786677
3.1026829339272823,2.5609315520498988
3.1026829339272823,2.9472201788945704
3.1026829339272823,2.9472201788945704
3.1026829339272823,2.760339616579084
3.128212706514364,2.760339616579084
3.128212706514364,2.760339616579084
3.1026829339272823,2.760339616579084
3.0358015467746737,2.9472201788945704
2.902260566515388,2.9538207579543734
2.5808350062155014,2.9472201788945704
2.579396850912257,2.743434687103053
2.579396850912257,2.5416764156696723
2.579396850912257,2.4861930557035885
2.579396850912257,2.4861930557035885
2.579396850912257,2.4861930557035885
2.3919084926863934,2.4861930557035885
1.913323555397517,2.4861930557035885
1.8952696312598738,2.4861930557035885
1.5777141353340145,2.4861930557035885
1.5777141353340145,2.4861930557035885
1.7219750042192306,2.743434687103053
1.5683535566368536,2.8848282881747704
1.4729044308720634,2.98789702194313
1.3553219496268283,3.6257581522145546
1.3453817477573091,4.409132254724551
1.3453817477573091,5.0322847694024215
1.3453817477573091,4.287282062853578
1.3453817477573091,3.858986136490505
1.3553219496268283,3.118647414108361
1.3553219496268283,1.9995868635126293
1.3453817477573091,1.601785649343215
1.3453817477573091,1.601785649343215
1.3453817477573091,1.601785649343215
1.3553219496268283,1.557420460799846
1.3277578436602258,1.54082154839273
1.3277578436602258,1.54082154839273
1.2990242709340911,1.4643116519464494
1.0957888291232487,1.2030415366485505
1.0957888291232487,1.158181208181631
1.0957888291232487,1.158181208181631
1.0957888291232487,1.158181208181631
1.0957888291232487,1.158181208181631
1.0957888291232487,1.158181208181631
1.0957888291232487,1.158181208181631
1.0957888291232487,1.158181208181631
1.4251823291365613,1.158181208181631
1.3069604615893828,1.2119006677813617
1.164543918389679,1.4264480767943377
1.1552350803729803,1.536426370493928
1.164543918389679,1.631392142198144
0.9913371439502467,1.631392142198144
0.9913371439502467,1.688325499511297
0.8929158026951979,1.5254462670486122
0.837794412654993,1.4982287822233709
0.8333218122346543,1.4626789521894812
0.8333218122346543,1.3140072648443173
0.7243312838811169,1.3067892388981104
0.5337886521306452,1.2998230154815524
0.5337886521306452,1.2998230154815524
0.5337886521306452,1.2998230154815524
0.5337886521306452,1.2991327358066298
0.5337886521306452,1.2991327358066298
0.5337886521306452,1.246179188277521
0.5337886521306452,1.246179188277521
0.5808437392614827,1.246179188277521
0.6281667687836322,1.246179188277521
0.7181345661481506,1.2991327358066298
0.7830543152234818,1.2991327358066298
1.0049380730588553,1.32364115735074
0.7830543152234818,1.32364115735074
0.7830543152234818,1.4504530679228471
0.7830543152234818,1.7642951029141016
1.0049380730588553,1.9516451035046107
0.8956724732566999,2.449970822953077
0.786601476660565,3.306022566502909
0.7490339244127191,4.516958776885979
0.7286218212205189,5.1972535036089855
0.4866097767775589,5.492106689091507
0.4866097767775589,5.557413136258636
0.4866097767775589,5.671866121713666
0.4866097767775589,5.692717393667455
0.5792573565815685,5.694715735147764
0.7278373669811794,5.731463973357395
0.7278373669811794,5.763213259308679
0.7278373669811794,5.765973019708951
0.7278373669811794,5.778399900879066
0.7443714567909646,5.780033879496737
0.7443714567909646,5.780033879496737
0.7443714567909646,5.765973019708951
0.7800887386966916,5.765973019708951
0.7800887386966916,5.765973019708951
0.7800887386966916,5.698534808636121
0.858398851404214,5.64600660420677
0.8836782719518722,5.557659500292554
0.8836782719518722,5.079286556948089
0.8836782719518722,4.665645200001092
0.8836782719518722,3.6659380227108262
0.8836782719518722,2.543539156960655
1.0160735552097737,2.543539156960655
1.2664097336010398,2.543539156960655
1.2664097336010398,2.543539156960655
1.2882955117306647,2.543539156960655
1.2664097336010398,2.543539156960655
1.6469914741461222,2.543539156960655
1.1807476074291399,2.543539156960655
1.1597826592946672,2.543539156960655
1.1597826592946672,2.543539156960655
1.1559858690828955,3.1723549488759004
1.1075901821030643,3.968731123384903
1.1075901821030643,5.0491353847659814
1.1075901821030643,5.450668468562515
1.0602414568346432,5.5221404602955655
0.9143016698335877,5.552933511514356
0.9143016698335877,5.530307834942263
0.9143016698335877,5.530307834942263
0.9143016698335877,5.530307834942263
0.9143016698335877,5.5221404602955655
0.9143016698335877,5.5221404602955655
0.9567499507753299,5.450668468562515
1.1154544765798882,5.450668468562515
1.1154544765798882,5.373096003702691
1.1414682225450046,5.331176379325096
1.1809035363883278,5.273873742300518
1.2237785422245537,5.2624637112715105
1.2364940753860663,5.203747142031482
1.2364940753860663,5.176836495835073
1.2975719901436797,5.132904322530152
1.2975719901436797,5.119920746292276
1.762136017419552,5.004705087068535
1.762136017419552,5.004705087068535
1.762136017419552,5.004705087068535
1.762136017419552,5.004705087068535
1.704303339556579,5.004705087068535
1.6830899131643249,5.004705087068535
1.6830899131643249,4.999804475831693
1.6830899131643249,4.9369454443183205
1.6830899131643249,4.744897760082507
1.6830899131643249,4.744897760082507
1.6830899131643249,4.602189863661365
1.6830899131643249,4.602189863661365
1.6830899131643249,4.525748753430559
1.7417034663387434,4.309072288593318
2.0287336431354963,4.309072288593318
2.4674111936249385,4.309072288593318
2.485096256350526,4.309072288593318
2.5263859797812844,4.309072288593318
2.5263859797812844,4.309072288593318
2.5263859797812844,4.309072288593318
2.4674111936249385,4.309072288593318
2.40698810941001,4.472135954999585
1.8025296045018806,4.472135954999585
1.5446695312234615,4.4747654843017335
1.5446695312234615,4.759811274539879
1.5444990956750795,4.759811274539879
1.5444990956750795,4.883455623522105
1.5444990956750795,5.148491886920816
1.5444990956750795,5.168263117568077
1.5444990956750795,5.260976505185884
1.5444990956750795,5.168263117568077
1.1450447069218832,4.895779947845434
1.409201954395883,4.613958207305597
1.6351486357059364,4.438433001908987
1.677956744296224,4.229210483069825
1.7121927128137804,4.169846903902196
1.8076133958273162,4.060256208707035
1.822520737388909,4.010985897134055
1.8544608651294783,4.010985897134055
2.0199349163161604,4.010985897134055
2.686158756363778,4.010985897134055
2.6888147522801353,3.990726450542577
2.8965805003161664,3.5689179251087513
2.8965805003161664,3.2575848597236003
2.8965805003161664,3.2575848597236003
2.9339587022438116,3.2575848597236003
2.8451916837964486,2.6365349284364203
2.686158756363778,2.1938358280241603
2.686158756363778,1.9397434994424794
2.565547532600306,1.8758929587879987
2.3969630854847366,1.5975669837613915
2.3236373709297795,1.4221612996924162
2.2914757582705456,1.3592668236204444
2.2518439972528554,1.3450631758915377
2.232733012353148,1.264626476906174
2.049082076952622,1.264626476906174
2.01908342240042,1.264626476906174
1.5853097707732504,1.264626476906174
0.8614555991397784,1.2409804904700268
0.8014081033122341,1.0891838991943195
0.8014081033122341,1.0710648191015193
0.8014081033122341,1.0710648191015193
0.8014081033122341,1.0710648191015193
0.8014081033122341,1.0710648191015193
0.8014081033122341,1.1190968071575302
0.8014081033122341,1.2717103197270079
0.8014081033122341,1.2717103197270079
1.046072810547037,1.2409804904700268
1.1444818655061861,1.2409804904700268
1.2150536724917511,1.2735909396489944
1.2150536724917511,1.3162909793643023
1.168455898697328,1.2751591728112193
1.1444818655061861,1.2751591728112193
1.1444818655061861,1.2294273010513346
1.1444818655061861,1.2294273010513346
1.168455898697328,1.2294273010513346
1.1736666296939207,1.2294273010513346
1.2731226925515022,1.2099045588600619
1.2731226925515022,1.1804878871413036
1.2731226925515022,1.1804878871413036
1.5066474955066593,1.1804878871413036
1.7302837243512106,1.1804878871413036
1.8737342595769673,1.2099045588600619
1.9102136708050559,1.2446809461868549
1.9206785098302879,1.2446809461868549
2.0775934767936928,1.2804440662014807
1.9342306900238924,1.2804440662014807
2.0775934767936928,1.4198479387697822
2.266590605297256,1.4934284744939528
2.384760136714306,1.5627918519739763
2.446306271652807,1.5627918519739763
2.363063676694236,1.5627918519739763
2.363063676694236,1.5627918519739763
2.363063676694236,1.5627918519739763
2.363063676694236,1.6671848071460134
2.363063676694236,1.6866340926954533
2.363063676694236,1.6866340926954533
2.446306271652807,1.6866340926954533
2.446306271652807,1.6866340926954533
2.6066261013846264,1.879621433403876
2.9283063933896303,2.1997968106451418
2.973170537918988,2.3228752644133124
3.0548521692574213,2.414172544895487
3.0548521692574213,2.414172544895487
3.0548521692574213,2.772059381105887
3.0548521692574213,2.8372777677118406
3.0548521692574213,3.0629806620398097
3.0548521692574213,3.135205582545654
3.0548521692574213,2.4445087173033473
2.9283063933896303,2.4256274145344037
3.0548521692574213,2.4256274145344037
3.1118350411325992,2.4256274145344037
3.1118350411325992,2.4256274145344037
3.1118350411325992,2.2083249826124147
3.2301999544232762,2.161454521102424
3.1438265602627897,2.161454521102424
3.1683799220184317,2.161454521102424
2.486242893573523,2.161454521102424
2.348586912822184,2.147020192817149
2.1900496734308876,1.9741520897566813
2.155133899197123,1.8864349007944894
1.802995345049406,1.469693373857617
1.802995345049406,1.469693373857617
1.802995345049406,1.469693373857617
1.802995345049406,1.469693373857617
1.802995345049406,1.469693373857617
1.802995345049406,1.469693373857617
1.802995345049406,1.469693373857617
1.802995345049406,1.469693373857617
1.9269338557949571,1.469693373857617
2.0767897868188157,1.3975111501430968
2.0767897868188157,1.3157381058138016
2.0767897868188157,1.2907478682670435
2.0767897868188157,1.2135270162955254
2.0767897868188157,1.2135270162955254
2.0767897868188157,1.2135270162955254
2.0326776646556874,1.1775777909353824
2.0326776646556874,1.1775777909353824
2.0767897868188157,1.1571981312984305
2.086594206311777,1.1571981312984305
2.0690379377809207,1.1571981312984305
2.0690379377809207,1.1571981312984305
2.086594206311777,1.1571981312984305
2.102579618176228,1.1775777909353824
2.102579618176228,1.1865016055262436
2.102579618176228,1.1865016055262436
2.102579618176228,1.1865016055262436
2.387353294616894,1.2609514310603924
2.5340270563734753,1.4162212230899636
2.7194091019964786,1.5729868335261301
2.7577292841227496,1.6178373425333792
2.788853446035952,1.7388454070097479
2.788853446035952,1.7388454070097479
2.788853446035952,1.7388454070097479
2.788853446035952,1.967995541953917
2.842768131961162,2.0039872289854976
2.807001648272613,2.047545395912017
2.788853446035952,2.099913085727557
2.788853446035952,2.102994239599364
2.788853446035952,2.2115939522245567
2.7723684269586935,2.168445177131505
2.7723684269586935,2.168445177131505
2.7723684269586935,2.0434858840939127
2.7723684269586935,1.9889188061695389
2.7723684269586935,1.9889188061695389
2.7723684269586935,1.9889188061695389
2.7723684269586935,1.9889188061695389
2.7723684269586935,1.9889188061695389
2.828014302804323,1.9889188061695389
2.8464188363847467,1.9889188061695389
2.92198388794868,1.9889188061695389
3.026961261214492,2.0434858840939127
3.0938211929198864,2.3182731907416314
3.284121689357535,2.4748600466450976
3.430829057098341,2.5958566975664388
3.4632790877061104,2.614588979549474
3.284121689357535,2.614588979549474
3.284121689357535,2.614588979549474
3.284121689357535,3.071231851869603
3.6287860721008007,3.071231851869603
3.4894340761946485,2.868980949157158
3.4894340761946485,2.731330159684081
3.4894340761946485,2.731330159684081
2.915658472789634,2.731330159684081
2.915658472789634,2.731330159684081
2.915658472789634,2.731330159684081
2.9555029955753254,2.731330159684081
2.9555029955753254,2.731330159684081
2.771583259352403,2.731330159684081
2.7492552471405967,2.731330159684081
2.2802820878846504,2.731330159684081
1.9037405282364968,3.8457701051956557
1.778089505591053,4.258394257028252
1.5989631642648556,4.440924913635329
1.4773420815154994,4.74753445003614
1.4065104274147895,4.716855306420946
1.4065104274147895,4.5252928785945254
1.4065104274147895,4.358264347112726
1.4065104274147895,3.5459660346028223
1.4065104274147895,2.3105555802026596
1.2981404973548154,1.820235453111016
1.2981404973548154,1.6456882225606848
1.2981404973548154,1.6456882225606848
1.2981404973548154,1.6456882225606848
1.3772604781353197,1.4474712804116292
1.4408808085682796,1.368035979394218
1.4408808085682796,1.306163878148663
1.4408808085682796,1.2402749627102074
1.4408808085682796,1.2402749627102074
1.4408808085682796,1.2402749627102074
1.4408808085682796,1.2402749627102074
1.4408808085682796,1.2885918722758283
1.4408808085682796,1.2885918722758283
1.3500508897476446,1.2885918722758283
1.2671181919051782,1.2885918722758283
1.2293960661110945,1.2885918722758283
1.1883828194124872,1.300396952080956
1.1562252592092612,1.402635113736376
1.0381636473616667,1.5698158873888683
0.9638072341232012,1.402635113736376
0.9560171064847889,1.402635113736376
0.928625451955035,1.402635113736376
0.9129525049453604,1.4521397824043358
0.8986665225720758,1.402635113736376
0.7989695620012105,1.3875952971353682
0.6317917142316624,1.3875952971353682
0.5152169745748636,1.3875952971353682
0.4852494471246254,1.3875952971353682
0.4852494471246254,1.3527144093793906
0.4821262728721261,1.3527144093793906
0.4693157782119826,1.4208471397713573
0.4693157782119826,1.4208471397713573
0.4693157782119826,1.4208471397713573
0.4693157782119826,1.4208471397713573
0.4693157782119826,1.4208471397713573
0.4693157782119826,1.425902670669712
0.5527175921512245,1.5174447099683412
0.5830403383596465,1.5174447099683412
0.8906619983700499,1.5364086266395285
1.1783535189413765,1.5784242517663107
1.0856739327260516,1.6813631798942468
1.0856739327260516,1.6936554616127373
1.0856739327260516,1.8385475812007288
1.0856739327260516,1.9113867881473523
0.9126463285295109,2.5499725296317437
0.8344139489578664,3.418638678198919
0.681656039180547,5.140851035056448
0.681656039180547,5.441836941817877
0.681656039180547,5.584724124547821
0.681656039180547,5.720965949545879
0.681656039180547,5.7283692663585075
0.681656039180547,5.792412094464894
0.681656039180547,5.814298539597967
0.6902366826162831,5.814298539597967
0.736446883015108,5.812633776806106
0.736446883015108,5.812633776806106
0.7807969811204812,5.809628853636606
0.7807969811204812,5.751530254942738
0.7852581840826024,5.698690048808942
0.8184389163951857,5.679306804997565
0.8760312513215571,5.614399696219124
0.9186188071868744,5.5083474811946935
0.9186188071868744,4.789420560409666
0.9186188071868744,3.336794979338455
0.9186188071868744,2.3293947962692076
1.146132699276796,1.8650010890613085
1.146132699276796,1.8288933929132092
1.198474599590059,1.8288933929132092
1.3429932882942022,1.8288933929132092
1.5320379201883536,1.8288933929132092
1.5320379201883536,1.8288933929132092
1.3429932882942022,1.8288933929132092
1.2610174785415864,1.8288933929132092
1.146132699276796,1.8288933929132092
0.884567663557969,1.8288933929132092
0.884567663557969,1.8329989373412632
0.884567663557969,2.8164981999559284
0.884567663557969,3.8059423623801845
0.884567663557969,4.851925139546427
0.884567663557969,5.321939956828065
0.8629187007386904,5.581767849177664
0.8629187007386904,5.597821526978561
0.884567663557969,5.581767849177664
0.9948302327731027,5.57038711267448
1.0174809680025352,5.568902923200155
1.0174809680025352,5.55650201180213
1.0272203522935095,5.506758327957154
1.0272203522935095,5.435855618953491
1.0272203522935095,5.259588053422573
1.0429807515324463,5.146937834218049
1.0429807515324463,4.876399268017985
1.0705844940533145,4.745235421375052
1.095332396359105,4.663859684330569
1.455411145681775,4.608776489570012
1.498467943242315,4.533455733582865
1.7215868106464853,4.533455733582865
1.8270441769030272,4.533455733582865
1.8270441769030272,4.533455733582865
1.8270441769030272,4.533455733582865
1.9682576616864518,4.533455733582865
1.9682576616864518,4.533455733582865
1.9682576616864518,4.4181120838292465
1.9682576616864518,4.4181120838292465
1.9682576616864518,4.5338307996726535
1.9682576616864518,4.576978117256865
1.9682576616864518,4.607627014054215
1.9682576616864518,4.65318386914895
1.9682576616864518,4.65318386914895
1.9682576616864518,4.65318386914895
1.9682576616864518,4.65318386914895
1.6041204805742695,4.6742472533682085
1.6041204805742695,4.689380912938135
1.6041204805742695,4.689380912938135
1.6041204805742695,4.689380912938135
1.6041204805742695,4.786652330230786
1.6041204805742695,5.089181042132983
1.6041204805742695,5.11442764472221
1.6041204805742695,5.164153613604509
1.654534867344469,4.915878211317109
1.6954847815473668,4.781000313030896
1.8250529837399727,4.781000313030896
1.9270123385956748,4.659934103764251
1.9270123385956748,4.581350804779117
1.987728758770334,4.581350804779117
1.987728758770334,4.581350804779117
1.987728758770334,4.581350804779117
1.987728758770334,4.581350804779117
1.760368635861772,4.581350804779117
1.3004287307603433,4.581350804779117
1.3004287307603433,4.659934103764251
1.3004287307603433,4.922138994446095
1.3004287307603433,5.020396583182157
1.3004287307603433,5.178179559048259
1.3004287307603433,5.289879459904779
1.3004287307603433,5.391560362553636
1.3004287307603433,5.40811340794367
1.303464335545968,5.29749642217525
1.3461508128242916,4.894066037348018
1.505471270891215,4.690021033026854
1.886589426129322,4.506021186780446
1.9565427350130136,4.220199385135526
2.134235341129824,3.810582298416469
2.284428799991672,3.0244864138319527
2.193225245026242,2.2452442696771926
2.193225245026242,1.9217366323018672
2.193225245026242,1.4973222490429925
1.7925358443238972,1.4973222490429925
1.2519446098299176,1.2762550407838402
1.2519446098299176,1.2189851874432611
1.2519446098299176,1.0634366985000885
1.2519446098299176,1.0520825885885317
1.2202357458982755,1.0520825885885317
1.015136868301049,1.0106546425031688
0.9676689078914482,0.9544490045997309
0.9676689078914482,1.0106546425031688
0.9676689078914482,1.0459696639902558
0.9676689078914482,1.0459696639902558
0.8897555573535325,1.0459696639902558
0.8605671217635631,1.0459696639902558
0.8328683558412969,1.0520825885885317
0.8328683558412969,1.0459696639902558
0.8328683558412969,1.0459696639902558
0.8328683558412969,1.0459696639902558
0.8605671217635631,1.0494977375775172
1.011845728660619,1.0949286657656851
1.1076231223602038,1.0494977375775172
1.1076231223602038,1.0492562417323685
1.1076231223602038,0.965802113965042
1.1913538389640954,0.965802113965042
1.3189713617731775,0.8970911147736549
1.3189713617731775,0.823338548145308
1.3189713617731775,0.8167850780560514
1.3260689482789154,0.7724693398933943
1.327778662037579,0.7342152915165338
1.3412700128460975,0.7342152915165338
1.446288208861561,0.7342152915165338
1.5202510597707337,0.7342152915165338
1.446288208861561,0.7342152915165338
1.446288208861561,0.7342152915165338
1.446288208861561,0.7342152915165338
1.5202510597707337,0.7724693398933943
1.5779840575843254,0.7771181256058542
1.5779840575843254,0.8226639646257932
1.5779840575843254,0.8226639646257932
1.5779840575843254,0.9085661142204168
1.5779840575843254,0.9480087886344108
1.5153908504089941,0.9480087886344108
1.5153908504089941,0.9480087886344108
1.6469541602800264,0.9630106398735723
1.689223017136679,1.0131830537107704
1.689223017136679,1.0287829722471449
1.689223017136679,1.0761621891494648
1.689223017136679,1.0768870041584242
1.8527812164830553,1.0768870041584242
2.0523751236775767,1.2013041027527918
2.098966944528396,1.2103771187203638
2.087601427850192,1.2103771187203638
2.1682696432207273,1.2013041027527918
2.1811582520941397,1.187578983748295
2.087601427850192,1.1414359691324831
2.0476406179080064,1.1414359691324831
1.9424149818180907,1.1665555883560672
1.9424149818180907,1.1665555883560672
1.9424149818180907,1.1665555883560672
1.9424149818180907,1.1665555883560672
1.9424149818180907,1.1665555883560672
1.9424149818180907,1.1665555883560672
1.9424149818180907,1.2152495834580617
1.9424149818180907,1.2183979291265588
1.9424149818180907,1.3157239435992827
2.1652078646837234,1.7054176867128505
2.1155528413771325,1.6433892259351979
2.104693590012195,1.6433892259351979
2.104693590012195,1.5420658469558275
2.104693590012195,1.540876049225267
1.7986111790286674,1.4592969098721331
1.7986111790286674,1.4592969098721331
1.7986111790286674,1.4592969098721331
1.7986111790286674,1.4592969098721331
1.7986111790286674,1.4592969098721331
1.7986111790286674,1.4592969098721331
1.6422427244924185,1.4592969098721331
1.4529038270777717,1.4592969098721331
1.3414586029696496,1.2759550994202322
1.4529038270777717,1.4336967339870155
1.4529038270777717,1.3200687165805194
1.4529038270777717,1.1735746478263758
1.4529038270777717,1.1735746478263758
1.4529038270777717,1.1735746478263758
1.4529038270777717,1.1735746478263758
1.4529038270777717,1.1735746478263758
1.4529038270777717,1.1735746478263758
1.7738795870505242,1.1735746478263758
1.9267380105200322,1.1735746478263758
2.1212341087791655,1.3200687165805194
2.1212341087791655,1.2620432371994612
2.2241478253393936,1.2620432371994612
2.3132017201372506,1.2620432371994612
2.3132017201372506,1.2620432371994612
2.2749014721139096,1.2620432371994612
2.2749014721139096,1.2620432371994612
2.2749014721139096,1.2620432371994612
2.2749014721139096,1.2620432371994612
2.2749014721139096,1.2620432371994612
2.3132017201372506,1.3548374031160513
2.4703659382174195,1.3548374031160513
2.3132017201372506,1.4834386392216532
2.5495173257731882,1.5252422342453036
2.5733761415270138,1.6596083812384754
2.5495173257731882,1.7727404639504787
2.696086161594995,1.7727404639504787
2.696086161594995,1.7727404639504787
2.696086161594995,1.7727404639504787
2.696086161594995,1.7727404639504787
2.696086161594995,1.7727404639504787
2.696086161594995,1.7727404639504787
2.7729419518691856,1.716929178792381
2.7729419518691856,1.716929178792381
2.696086161594995,1.716929178792381
2.696086161594995,1.716929178792381
2.943857341024927,2.3002228157654603
3.10056177379745,2.3002228157654603
3.10056177379745,2.3002228157654603
3.058868619681671,2.3002228157654603
3.058868619681671,2.3002228157654603
2.950296774937068,2.3002228157654603
2.950296774937068,2.3002228157654603
2.9520474163272854,2.4836287317689894
3.0343799036713355,2.4836287317689894
3.058868619681671,2.4836287317689894
3.0259872829982317,2.4836287317689894
2.818977126144917,2.7188658993593484
2.645585303877416,3.462986009901148
2.645585303877416,4.051373353225267
2.2788556021566,4.2314496687497005
2.06643532240517,4.275547195721243
1.8935119510882474,4.3683670376675225
1.8935119510882474,4.517107129898834
1.7694755000147087,4.654392015307924
1.5988934399351171,5.007452117699696
1.551360132598269,5.070925528371104
1.551360132598269,5.070925528371104
1.542909366737119,5.080294508636756
1.4305630489801293,5.110981340187089
1.396219127978361,5.154352068184427
1.396219127978361,5.111340007093969
1.396219127978361,5.0587556315973705
1.396219127978361,4.251211080710921
1.396219127978361,3.768345278586139
1.396219127978361,2.9746745450025176
1.3739877555822844,1.9560302938103433
1.3406747821373157,1.537016023825495
1.3406747821373157,1.537016023825495
1.3406747821373157,1.537016023825495
1.378998749606975,1.4760775859475754
1.378998749606975,1.4550840944478258
1.2411906745999228,1.2691309627551215
1.2411906745999228,1.147335229882118
1.2411906745999228,1.1238283274295529
1.2411906745999228,1.010205665667538
1.2411906745999228,1.010205665667538
1.2666644701956116,0.9098212429196065
1.2411906745999228,0.9098212429196065
1.222937980026457,0.9098212429196065
1.222937980026457,0.9098212429196065
1.222937980026457,0.9098212429196065
1.222937980026457,1.010205665667538
1.250856388688357,1.0487117497254428
1.1067523487476514,1.0487117497254428
1.0556788945554294,1.0625693539795389
0.9168270599875993,1.0625693539795389
0.8791942772548772,1.2601364584661698
0.8791942772548772,1.3332666347211997
0.8791942772548772,1.307210885786075
0.8761998698609136,1.307210885786075
0.8594071348368376,1.4101022030600152
0.7772248937145799,1.4138555496931355
0.7292559356071873,1.45091041728286
0.6798187033526687,1.426561804175874
0.5715303734257726,1.426561804175874
0.5247571287271439,1.426561804175874
0.47798662717936913,1.3908878293229607
0.47798662717936913,1.426561804175874
0.468164153944504,1.426561804175874
0.468164153944504,1.45091041728286
0.468164153944504,1.45091041728286
0.468164153944504,1.45091041728286
0.468164153944504,1.45091041728286
0.468164153944504,1.4232397548996822
0.5718099306336045,1.4232397548996822
0.6040096099641584,1.4232397548996822
0.8297424229236277,1.4232397548996822
1.1957311194742957,1.5493326181007294
1.490550348060211,1.556353235789481
1.2195418195018741,1.556518909215554
1.2195418195018741,1.556518909215554
1.2195418195018741,1.5902857876097751
1.2195418195018741,2.194034846401133
0.994154466416037,2.26761903038552
0.9904131010412192,3.737930137368239
0.7508270226127117,4.924340135715941
0.7162357965451329,5.286157001480111
0.6972585290219221,5.488183347372371
0.6972585290219221,5.60865414875162
0.6972585290219221,5.695337686916956
0.6972585290219221,5.76108558985213
0.6972585290219221,5.76497729139965
0.7162357965451329,5.7770892602837804
0.7508270226127117,5.76497729139965
0.7595863345583151,5.76497729139965
0.7770070255668202,5.76497729139965
0.7770070255668202,5.76497729139965
0.7770070255668202,5.76497729139965
0.7770070255668202,5.76497729139965
0.7770070255668202,5.76497729139965
0.8625009772364002,5.71575428173788
0.7032673643259115,5.712590137819349
0.7032673643259115,5.683778722506218
0.7032673643259115,5.603828392587111
0.7032673643259115,5.483661560750771
0.7032673643259115,5.149463212617438
0.7032673643259115,5.104380850728327
0.7032673643259115,4.904224407941326
0.7271813221602293,4.650652516611203
1.0666349513880293,4.650652516611203
1.0666349513880293,4.650652516611203
1.0666349513880293,4.650652516611203
1.0666349513880293,4.650652516611203
0.833506588561522,4.650652516611203
0.833506588561522,4.650652516611203
0.833506588561522,4.650652516611203
0.833506588561522,4.700043480103085
0.833506588561522,5.006242206870718
0.833506588561522,5.2007111739935725
0.833506588561522,5.499432583929125
0.833506588561522,5.527642079656794
0.8875210771866718,5.499432583929125
0.9365245160536746,5.374450661580499
0.9549930057191443,5.258036881903765
0.9561520158920551,5.135112943190235
1.0143047292473573,5.115703822619431
1.0729592618819286,4.918030322786123
1.4438470607632328,4.918030322786123
1.4438470607632328,4.918030322786123
1.4438470607632328,4.918030322786123
1.4438470607632328,4.918030322786123
1.1739987295567589,4.918030322786123
1.1739987295567589,4.918030322786123
1.1739987295567589,4.918030322786123
1.1739987295567589,4.938057748630014
1.1739987295567589,4.98145373775768
1.1739987295567589,5.274538781488459
1.1739987295567589,5.282985400633582
1.1739987295567589,5.310066185924529
1.2295693349972314,5.2030077583104495
1.2713540766216898,5.2030077583104495
1.273582463399995,5.183735917207005
1.3225480016741595,5.129832602586263
1.3452714399861867,5.129832602586263
1.3452714399861867,5.129832602586263
1.2906450547973243,5.129832602586263
1.2906450547973243,5.129832602586263
1.2863531703754285,5.129832602586263
1.2906450547973243,5.129832602586263
1.2906450547973243,5.129832602586263
1.2906450547973243,5.149883029322396
1.2906450547973243,4.75031540712906
1.3798125517557223,4.0876700624636575
1.3798125517557223,3.2243150137699907
1.3798125517557223,2.3839508119004864
1.3798125517557223,2.165738847844037
1.4291801623593183,1.9332024886051844
1.5121370190963355,1.818636632512466
1.5278363160739639,1.7673002964368336
1.5343578512883564,1.7673002964368336
1.8986607875039971,1.7673002964368336
2.064538789612514,1.7673002964368336
2.2187391401800567,1.7673002964368336
2.2479151289472057,1.7673002964368336
2.4432388287144664,1.7673002964368336
2.2479151289472057,1.7673002964368336
2.2187391401800567,1.7673002964368336
2.15745246681316,2.079054280992491
1.8584607906018968,2.409187517504814
1.8584607906018968,2.585535588864784
1.7841115693053275,2.7662885472387146
1.5335408330538776,2.860835994539601
1.4579166141205506,3.5093246541014294
1.4042439880939048,3.79400623184381
1.4042439880939048,5.019469118255999
1.4042439880939048,5.072752267814761
1.4042439880939048,5.057977774272551
1.4579166141205506,4.844486977771487
1.6084405025003148,4.655332281307995
1.6084405025003148,4.350461538682223
1.6084405025003148,2.77959458858381
1.6084405025003148,2.453286312373405
1.689899506302949,1.8041278053385297
1.8466506138964607,1.687943652581722
1.8466506138964607,1.6778632259715327
1.8466506138964607,1.3295015878634648
1.8045522784575982,1.177955849972419
1.8045522784575982,1.1574766943111727
1.8045522784575982,1.1574766943111727
1.6855198054411946,1.1574766943111727
1.6364005372413082,1.1574766943111727
1.5404593051021995,1.1574766943111727
1.5404593051021995,1.1566187687164327
1.4270283637675292,1.0719905970680705
1.4270283637675292,1.0719905970680705
1.4270283637675292,1.0719905970680705
1.2511238748868414,1.029470891418669
1.237641124366512,1.0719905970680705
1.237641124366512,1.029470891418669
1.237641124366512,0.9974184394790985
1.237641124366512,0.9489395646254825
1.2511238748868414,0.9489395646254825
1.237641124366512,0.9489395646254825
1.2511238748868414,0.9489395646254825
1.1354435353122332,0.9544289240587274
0.9300303774039037,0.9489395646254825
0.9300303774039037,0.9489395646254825
0.9300303774039037,0.9489395646254825
0.9300303774039037,0.9489395646254825
0.9300303774039037,0.9544289240587274
0.9300303774039037,0.9887993382394717
0.9300303774039037,1.0156363932808052
0.9300303774039037,1.0342573209002033
1.1940478369078822,1.0156363932808052
1.5557578958621554,1.0156363932808052
1.5567145199612271,1.0342573209002033
1.5567145199612271,1.0156363932808052
1.5663125841734118,1.0342573209002033
1.5663125841734118,1.0342573209002033
1.5663125841734118,1.0342573209002033
1.6978376281313625,1.0342573209002033
1.6978376281313625,1.0342573209002033
1.715984131364317,1.0289475788143065
1.731894800973162,1.0120104980794689
1.7501622459956547,1.0289475788143065
1.8114368901598759,1.0289475788143065
1.7782873476171668,1.0289475788143065
1.7501622459956547,1.0426353182661923
1.7083994236775255,1.042809112895508
1.7083994236775255,1.1510246123385748
1.7083994236775255,1.1598660601567066
1.7083994236775255,1.1598660601567066
1.7083994236775255,1.3331657533422656
1.7083994236775255,1.3380892790460068
1.7083994236775255,1.5234277403022047
1.7083994236775255,1.6221644314996104
1.7083994236775255,1.6388298502047298
1.7155912047437811,1.5788712836142593
1.8173617925324885,1.5788712836142593
1.8173617925324885,1.5788712836142593
1.8173617925324885,1.5788712836142593
1.7885696211436612,1.1513655690565143
1.7885696211436612,1.112828267119055
1.7885696211436612,1.112828267119055
1.7885696211436612,1.112828267119055
1.7885696211436612,1.112828267119055
1.7885696211436612,1.112828267119055
1.7885696211436612,1.112828267119055
1.8173617925324885,1.112828267119055
2.0307538659948285,1.112828267119055
2.3573108589511427,1.1513655690565143
2.383241414842186,1.5486877251238045
2.5871165877918014,1.6734151239175932
2.768398847239812,2.217486770113322
2.656120383253452,2.217486770113322
2.7824850614302212,2.217486770113322
2.5686971034143506,2.1166280402362245
2.463327034430917,1.9225367329284038
2.438856298862122,1.4693120910472692
2.438856298862122,1.0131830537108142
1.9510022446851067,0.9650322308841477
1.9510022446851067,0.9650322308841477
1.9510022446851067,0.9650322308841477
1.9510022446851067,0.9650322308841477
1.9510022446851067,0.9650322308841477
1.9510022446851067,0.9650322308841477
1.9510022446851067,0.9650322308841477
1.9510022446851067,0.9650322308841477
1.9583548861810554,0.9917641492080129
2.221497252517255,1.0131830537108142
2.41253747623222,1.2678127825266252
2.575881761115694,1.699730061488519
2.7273513889560927,1.7483864910821367
2.998055298834735,2.0892917485882396
2.998055298834735,2.0892917485882396
2.991839691904197,2.0892917485882396
2.7273513889560927,2.0892917485882396
2.8924009956189622,1.7647396864516889
2.8924009956189622,1.711276917298157
2.8924009956189622,1.711276917298157
2.8924009956189622,1.711276917298157
2.8924009956189622,1.711276917298157
2.8924009956189622,1.7647396864516889
2.8924009956189622,1.7647396864516889
2.598119597740115,1.7647396864516889
2.4800112505359753,1.7647396864516889
2.182803840253815,1.7647396864516889
1.9923818497389603,1.711276917298157
1.6804444435348578,1.711276917298157
1.6753198136915595,1.66172863630693
1.6753198136915595,1.66172863630693
1.6753198136915595,1.66172863630693
1.6753198136915595,1.66172863630693
1.6753198136915595,1.66172863630693
1.6753198136915595,1.66172863630693
1.8117869730716454,1.66172863630693
1.8117869730716454,1.66172863630693
1.8117869730716454,1.66172863630693
2.1135275391126727,1.7089145563396102
2.5366151278993034,2.1026989042297517
2.61134817709785,2.9700278886527762
2.6164440908278497,3.872525422203668
2.6164440908278497,3.8247200851344294
2.6164440908278497,3.8247200851344294
2.6620468341787022,3.8247200851344294
2.6620468341787022,3.819705109562797
2.778174588613181,3.779223364982421
2.889378710359752,3.819705109562797
2.889378710359752,3.819705109562797
2.778174588613181,3.819705109562797
2.6944965772651837,3.819705109562797
2.6944965772651837,3.819705109562797
1.4803125714762997,4.090658992513261
1.4803125714762997,4.096190324340641
1.291391832425395,4.096190324340641
1.291391832425395,4.096190324340641
1.291391832425395,4.186777752627701
1.291391832425395,4.580278140351352
1.291391832425395,5.024861842912521
1.2460521284279766,5.268559016006076
1.1981559347341495,5.158729912507057
1.1981559347341495,5.055554348230939
1.1981559347341495,5.024861842912521
1.1981559347341495,4.336966889074692
1.1981559347341495,3.593013838969887
1.370593209168267,2.3629011187667452
1.22349795770182,1.862089993823885
1.22349795770182,1.5154438271654391
1.22349795770182,1.5154438271654391
1.22349795770182,1.5154438271654391
1.2192121565232703,1.3973031529213598
1.370593209168267,1.3862458350863947
1.2192121565232703,1.1404854644725275
0.9689825058817638,1.1404854644725275
0.9689825058817638,1.1404854644725275
0.9689825058817638,1.1404854644725275
0.9689825058817638,1.1404854644725275
0.9689825058817638,1.1736193603962253
0.9689825058817638,1.1736193603962253
0.912717053399424,1.1736193603962253
0.912717053399424,1.1736193603962253
0.923607101310976,1.2957439512293978
0.9596491858858355,1.2957439512293978
0.9942933033361813,1.3084552876491753
1.0034544371850427,1.3876204101452967
0.9942933033361813,1.411681032462956
0.9596491858858355,1.411681032462956
0.923607101310976,1.411681032462956
0.923607101310976,1.411681032462956
0.912717053399424,1.41004663002414
0.9115648070873308,1.41004663002414
0.8720099239523564,1.41004663002414
0.7979510816733678,1.4619003488782707
0.7485681000555131,1.358581555716974
0.7312479201101444,1.358581555716974
0.6196356859458565,1.358581555716974
0.4502123661507942,1.358581555716974
0.4502123661507942,1.358581555716974
0.4502123661507942,1.3158500348906526
0.4502123661507942,1.333366054159691
0.4502123661507942,1.4318173930762905
0.4502123661507942,1.4318173930762905
0.4502123661507942,1.4318173930762905
0.47293583642448944,1.4318173930762905
0.6391355556416087,1.4526585826984775
0.867789924289424,1.4599330916384285
1.13898309992111,1.4738601559287385
1.3067699045773666,1.4738601559287385
1.0999886940999872,1.6360677052306425
1.13898309992111,1.7700145413844819
1.13898309992111,2.1136981963053247
1.1134792735565056,2.289745225658002
1.006676472311598,2.7529927490133197
0.8638590928997562,3.9672227843222503
0.770586624996475,4.780194256360641
0.7592213707724029,5.4167083413370545
0.7583650822475259,5.551362011964886
0.7583650822475259,5.643656904370554
0.7583650822475259,5.753143951174443
0.7583650822475259,5.761629028874749
0.7583650822475259,5.787828435498577
0.7583650822475259,5.817434172012055
0.7583650822475259,5.816390132838245
0.7615374634938994,5.817434172012055
0.7615374634938994,5.817434172012055
0.7851794523693802,5.816390132838245
0.817374845327015,5.787828435498577
0.817374845327015,5.787828435498577
0.8794135030274022,5.787368859026151
0.7944390212947903,5.688551340155906
0.8794135030274022,5.57211084290079
0.9689286627198394,5.511641548327307
1.0667127501433007,5.435723525844553
1.1009432223412141,5.245607114244985
1.1009432223412141,5.138408641623182
1.1009432223412141,4.982927140568566
1.1009432223412141,4.838540254972478
1.27071778992902,4.838540254972478
1.27071778992902,4.838540254972478
1.27071778992902,4.838540254972478
1.27071778992902,4.838540254972478
1.2562193698772173,4.838540254972478
1.0765145021409175,4.838540254972478
1.0765145021409175,4.838540254972478
1.0765145021409175,4.838540254972478
1.075959624731969,5.047141447308942
1.0058842559703531,5.153691864688089
0.9722657300196802,5.424875251208582
0.9722657300196802,5.527106259431284
0.9722657300196802,5.495782271900965
1.0058842559703531,5.426654601764715
1.075959624731969,5.384850412604944
1.075959624731969,5.238286775654414
1.1774040946716693,5.17870773875515
1.1774040946716693,5.176403976990332
1.2425933008112535,5.028900771272353
1.4971180688911354,5.028900771272353
1.4971180688911354,5.028900771272353
1.5331397584668889,5.028900771272353
1.632612001412982,5.028900771272353
1.6720149042340886,5.025569791595867
1.6720149042340886,4.988620514838675
1.7139031185359994,4.87630324084276
1.689095876917204,4.87630324084276
1.5946521510891807,4.974159964808517
1.5946521510891807,4.87630324084276
1.5946521510891807,4.899044820538064
1.5946521510891807,4.87630324084276
1.753987936955149,4.87630324084276
1.7215293301851504,4.87630324084276
1.7215293301851504,4.87630324084276
1.7215293301851504,4.87630324084276
1.7117261288100336,4.899044820538064
1.5946521510891807,4.974159964808517
1.5946521510891807,4.974159964808517
1.7117261288100336,5.011297229824757
1.7117261288100336,5.076135459369026
1.7117261288100336,5.076135459369026
1.7117261288100336,5.076135459369026
1.7117261288100336,4.83868261358531
1.7216309517704957,4.83868261358531
1.733295213981826,4.83868261358531
1.7521221283029167,4.83868261358531
1.8254323574643723,4.83868261358531
2.022440099736077,4.83868261358531
2.022440099736077,4.83868261358531
2.022440099736077,4.83868261358531
2.022440099736077,4.83868261358531
1.7519772255640047,4.883271942475199
1.185116573353985,4.975000857715411
1.185116573353985,5.029516136174408
1.185116573353985,5.046648286605562
1.185116573353985,5.168505670537042
1.185116573353985,5.124670029460578
1.185116573353985,5.168505670537042
1.185116573353985,5.046648286605562
