0.9890453681207931,3.522530478718086
0.9890453681207931,3.6085964011735245
0.9890453681207931,3.6458322875753115
0.9890453681207931,3.5430472289723576
1.0753251856454145,3.4607449305267846
1.3005163307237968,3.4265270235083127
1.3233004414547032,3.257910452913361
1.3523336520692097,3.067510857507668
1.2150999552402522,2.897884345115174
1.2150999552402522,2.897884345115174
1.21995197356016,2.897884345115174
1.2150999552402522,2.897884345115174
1.0620358916780777,2.875935821500024
0.8903519601900541,2.7196788845279394
0.8903519601900541,2.6960335472926666
0.8433732229131626,2.820878486395332
0.7932853617860699,2.8968126946087476
0.7574306291546843,2.8968126946087476
0.7276500274504264,2.8968126946087476
0.7025164966931149,2.8968126946087476
0.4627108032620632,2.8968126946087476
0.4353810812986644,2.8968126946087476
0.4353810812986644,2.8968126946087476
0.4353810812986644,2.9097668562450663
0.4353810812986644,3.103536056690727
0.4353810812986644,3.103536056690727
0.4353810812986644,2.918563069109369
0.4353810812986644,2.917107266748793
0.45370491220955156,2.917107266748793
0.479606463043037,2.917107266748793
0.5512999913578601,2.9143110604761735
0.5784416294920111,2.785757158847541
0.6272441469876271,2.785757158847541
0.6771721459888241,2.785757158847541
0.6771721459888241,2.785757158847541
0.6771721459888241,2.785757158847541
0.6771721459888241,2.785757158847541
0.6771721459888241,2.785757158847541
0.6771721459888241,2.767258549372386
0.6771721459888241,2.767258549372386
0.7389272416150945,2.767258549372386
0.7389272416150945,2.767258549372386
0.7389272416150945,2.767258549372386
0.6946598601317546,2.767258549372386
0.580069249238278,2.767258549372386
0.33640156017328815,2.767258549372386
0.33640156017328815,2.767258549372386
0.33640156017328815,2.8225907369533925
0.33640156017328815,3.070117317354874
0.33640156017328815,3.111703142525805
0.33640156017328815,3.111703142525805
0.32196555332291754,3.111703142525805
0.32196555332291754,3.111703142525805
0.32196555332291754,3.1100392515038298
0.32619255220782006,3.070117317354874
0.3474929864031623,3.01142130049437
0.3528271678087555,3.01142130049437
0.41203316497968967,2.939931165950627
0.41203316497968967,2.9027998254116043
0.41203316497968967,2.9027998254116043
0.3474929864031623,2.967423288773325
0.3444480490310462,2.967423288773325
0.3444480490310462,2.967423288773325
0.3444480490310462,2.967423288773325
0.3444480490310462,2.967423288773325
0.3444480490310462,3.2014917946101247
0.3444480490310462,3.5125777674734273
0.3444480490310462,3.572822861617839
0.3444480490310462,4.086829623746552
0.3444480490310462,4.091468806123265
0.3444480490310462,4.118826862563355
0.4497723801894675,4.168074704006299
0.5381205314207084,4.168074704006299
0.7955353121329324,4.168074704006299
0.8978696111006579,4.168074704006299
0.9559757903288159,4.156246109796019
1.0313396292840467,4.105858698450978
1.1047553231574982,4.019356359470941
1.1047553231574982,4.019356359470941
1.0313396292840467,4.019356359470941
1.0313396292840467,4.019356359470941
1.0313396292840467,3.9750610975448386
0.7956959388912448,3.9750610975448386
0.6195304859543794,3.9750610975448386
0.6098025740223904,3.9750610975448386
0.6098025740223904,3.9750610975448386
0.6098025740223904,4.05012409493947
0.6098025740223904,4.05012409493947
0.6098025740223904,4.11436272935056
0.6098025740223904,4.1731285027090825
0.7208290515741691,4.1731285027090825
0.9595337231819735,4.05012409493947
1.1775419312433038,4.011919333687853
1.3749587419647833,3.8521701349720097
1.5089567952947682,3.0335835473961965
1.6657094414738627,3.0335835473961965
1.8943726490538284,3.0335835473961965
1.9052261867871743,3.0335835473961965
2.0029408222777416,3.0335835473961965
2.1453298342691642,3.0335835473961965
2.444647907682402,2.733650306252511
2.4473611721480593,2.6224042384507813
2.444647907682402,2.6224042384507813
2.444647907682402,2.6224042384507813
2.444647907682402,2.733650306252511
2.444647907682402,2.8274086741746287
2.4473611721480593,2.7938797342621777
2.5504135375425365,2.6224042384507813
2.4473611721480593,2.6224042384507813
2.4473611721480593,2.6224042384507813
2.1178132409161616,2.6224042384507813
2.089149448274065,2.8274086741746287
2.0482551451681625,2.8274086741746287
2.089149448274065,2.8274086741746287
2.00897012683342,2.8274086741746287
2.00897012683342,2.8274086741746287
1.8670275331644604,3.368831299000048
1.8670275331644604,3.368831299000048
1.8464537762338094,3.428828723947717
1.7889112373876839,3.4439225716172577
1.7015385811317676,3.5532236296126056
1.7015385811317676,3.5532236296126056
1.7702663631540994,3.5532236296126056
1.7706672983104907,3.5532236296126056
1.8464537762338094,3.4653622711991328
1.8464537762338094,3.2833520568515553
1.6950421303167662,3.2833520568515553
1.6950421303167662,3.2833520568515553
1.6950421303167662,3.4653622711991328
1.6950421303167662,3.4653622711991328
1.7930226651253243,3.3394450280788397
1.7930226651253243,3.3394450280788397
1.773206957333666,3.3394450280788397
1.773206957333666,3.3394450280788397
1.7215597885330256,3.4653622711991328
1.7215597885330256,3.512471668209922
1.7245182409046536,3.512471668209922
1.737498746796813,3.4949309861527467
1.7245182409046536,3.4949309861527467
1.7245182409046536,3.4949309861527467
1.7245182409046536,3.512471668209922
1.7245182409046536,3.512471668209922
1.737498746796813,3.4949309861527467
1.7287772571260909,3.4760040925807143
1.7287772571260909,3.4760040925807143
1.737498746796813,3.4760040925807143
1.737498746796813,3.4534975479833605
1.7518689502041689,3.4499969723464257
1.7974856275325815,3.3572828304672124
1.8479185536965743,3.1560793145923873
1.8479185536965743,3.0332814593931463
1.9128986707867903,2.5116044579170613
2.234197936784054,2.4586126411867175
2.3278967001677455,2.400300798081972
2.630847421008776,2.400300798081972
2.4899867770013473,2.400300798081972
2.568540578347646,2.400300798081972
2.3743062056019406,2.2256113529709416
1.9901214069144708,2.2256113529709416
1.9901214069144708,2.2256113529709416
1.9901214069144708,2.2256113529709416
1.9243426058199067,2.2256113529709416
1.8505513715779027,2.242807445861268
1.7496013777134405,2.242807445861268
1.5990237503609468,2.242807445861268
1.5292613544868467,2.242807445861268
1.5292613544868467,2.242807445861268
1.5292613544868467,2.242807445861268
1.5292613544868467,2.3074504462624463
1.5292613544868467,2.3074504462624463
1.5292613544868467,2.3534859923714504
1.5292613544868467,2.3534859923714504
1.4468041304323294,2.3534859923714504
1.3682512175558832,2.3998311309602527
1.3682512175558832,2.4121673159333907
1.3101706967603024,2.4121673159333907
0.9232170569115965,2.4121673159333907
0.9232170569115965,2.4121673159333907
0.9232170569115965,2.4121673159333907
0.9232170569115965,2.5716161170441594
0.9232170569115965,2.5716161170441594
0.9232170569115965,2.5716161170441594
0.9232170569115965,2.463970418866257
0.9232170569115965,2.463970418866257
0.9584381542587085,2.463970418866257
0.9698186667763683,2.463970418866257
0.9698186667763683,2.463970418866257
0.9967027747920582,2.463970418866257
1.0474214439029483,2.4510691776857074
1.043245520928686,2.4510691776857074
1.043245520928686,2.4510691776857074
1.043245520928686,2.5028402199564925
1.043245520928686,2.656801060377463
1.043245520928686,2.6514453760395287
1.043245520928686,2.4056779234848897
1.043245520928686,2.4056779234848897
1.086454820425513,2.4056779234848897
1.2554788053655286,2.3485159107589797
1.2554788053655286,2.342637899886705
1.3173526585113566,2.318120451873125
1.3822666764337093,2.318120451873125
1.4321594589269537,2.318120451873125
1.6092033854394587,2.318120451873125
1.990548805962812,2.318120451873125
2.009816140795231,2.342637899886705
2.112297951901015,2.3459015833454395
2.4487622215353895,2.3459015833454395
2.4932741428151535,2.3459015833454395
2.67090348948114,2.3459015833454395
2.8348020394777635,2.4090531561500805
2.838462591209634,2.4431096577104747
2.838462591209634,2.4431096577104747
2.838462591209634,2.436290576672028
2.838462591209634,2.436290576672028
2.9478077914752734,2.163508575857676
3.0156609379590367,2.1406522536912043
3.0156609379590367,1.9837413742793855
3.0156609379590367,1.9837413742793855
3.0156609379590367,1.9837413742793855
3.0156609379590367,1.9837413742793855
3.0156609379590367,1.9837413742793855
2.9224657085178696,1.9837413742793855
2.9224657085178696,2.0128513703543875
2.9224657085178696,2.0128513703543875
2.9224657085178696,2.0128513703543875
2.9224657085178696,1.9837413742793855
2.956218876125097,1.9947975322764289
3.288191690637601,1.9947975322764289
3.288191690637601,2.016919189106106
3.288191690637601,2.016919189106106
3.288191690637601,2.016919189106106
3.098157127738404,2.016919189106106
3.3253808575640895,2.016919189106106
3.3253808575640895,2.016919189106106
3.3253808575640895,2.1695565540266197
3.2436138794591205,2.0768692001525233
3.193847900094699,2.14011977561368
3.193847900094699,2.1847089696539985
3.193847900094699,2.2064361000936423
3.2436138794591205,2.14011977561368
2.9736496903288923,1.821032687899461
2.9736496903288923,1.7175597419530024
2.904072407842248,1.7175597419530024
2.904072407842248,1.7175597419530024
2.904072407842248,1.7175597419530024
2.904072407842248,1.7175597419530024
2.760804047538927,1.7175597419530024
2.760804047538927,1.7175597419530024
2.760804047538927,1.7175597419530024
2.760804047538927,1.7175597419530024
2.760804047538927,1.7638926825375274
2.6945088589929482,1.8111581126541554
2.7926690709905366,1.8219067740115853
2.7926690709905366,1.8219067740115853
2.7926690709905366,1.8111581126541554
2.7926690709905366,1.8111581126541554
2.7926690709905366,1.8111581126541554
2.812034574269722,1.906596898839083
2.6164617994092154,1.9093386360047737
2.5875608379789856,1.9093386360047737
2.5150679640619042,1.9093386360047737
2.5150679640619042,2.0561049604061257
2.5150679640619042,2.0561049604061257
2.5046791906181562,2.0561049604061257
2.5046791906181562,2.0790417234217915
2.5046791906181562,2.0593489514698198
2.5046791906181562,2.0593489514698198
2.5046791906181562,2.0593489514698198
2.5046791906181562,1.85881705935492
2.5150679640619042,1.85881705935492
2.7302379215576074,1.8359218235530186
3.117220992497951,1.8170878783001347
3.1552740970848268,1.8170878783001347
3.1614625775848126,1.8170878783001347
3.4523828307712288,1.7437151986350792
3.4523828307712288,1.7437151986350792
3.3850411452098634,1.7698357354198422
3.3791716486755643,1.7286504507272449
3.3791716486755643,1.7286504507272449
3.3791716486755643,1.7698357354198422
3.3791716486755643,1.7286504507272449
3.1405757543413433,1.7286504507272449
3.208301706212184,1.7698357354198422
3.208301706212184,1.7698357354198422
3.208301706212184,1.7698357354198422
3.208301706212184,1.799220152029414
3.208301706212184,1.799220152029414
3.208301706212184,1.747580044348436
3.208301706212184,1.9274942182760182
3.208301706212184,1.9274942182760182
3.208301706212184,2.085853319694488
2.802683387946202,2.1309056444442502
2.802683387946202,2.260091281244642
2.432846745075193,2.260091281244642
2.073687052282372,2.260091281244642
1.719316547858992,2.260091281244642
1.4303038233296996,2.3622539676278946
1.1853958075343145,2.3973480289046494
1.1853958075343145,2.767029403977218
1.1853958075343145,3.1289951898398876
1.1853958075343145,3.39406449894501
1.1853958075343145,3.1492355904356812
1.1853958075343145,3.1492355904356812
1.1853958075343145,3.192956581427145
1.1911281128552478,3.0650365336659324
1.21112738970269,2.9300226015085102
1.21112738970269,2.9146933922627682
1.265056110316645,2.9146933922627682
1.265056110316645,2.9146933922627682
1.21112738970269,2.9146933922627682
0.9141227606877422,2.9146933922627682
0.7837240466178831,2.9146933922627682
0.7837240466178831,2.9146933922627682
0.7837240466178831,2.9395484371201315
0.6166598989534257,2.9300226015085102
0.6166598989534257,2.9300226015085102
0.6069605315858819,2.9395484371201315
0.5470569464282509,2.994202593610031
0.5470569464282509,2.994202593610031
0.5470569464282509,2.90309871637584
0.6069605315858819,2.841227924151176
0.6069605315858819,2.841227924151176
0.6069605315858819,2.841227924151176
0.5345381325942334,2.841227924151176
0.46445333248479176,2.9398161596725907
0.44459530382449985,2.9398161596725907
0.42765048659176186,2.9398161596725907
0.42424386026178124,2.9398161596725907
0.40048587678070563,2.9398161596725907
0.40048587678070563,3.0731396041871957
0.40048587678070563,3.0731396041871957
0.40048587678070563,3.0638478125048336
0.40048587678070563,2.9524580541857075
0.40048587678070563,2.9398161596725907
0.40048587678070563,2.9368350311176834
0.4115674250659275,2.9368350311176834
0.5260407513212226,2.9524580541857075
0.5260407513212226,2.9368350311176834
0.5260407513212226,2.9368350311176834
0.5531075065002218,2.9368350311176834
0.565731832788437,2.9368350311176834
0.48441881960666644,2.9368350311176834
0.48441881960666644,2.9368350311176834
0.48441881960666644,2.9368350311176834
0.47865369113879047,2.9368350311176834
0.4786339284708735,2.968196686555705
0.4483138358914123,2.968196686555705
0.41154466010887386,3.0331256182379405
0.3843028379545487,3.0331256182379405
0.3843028379545487,2.9901942002656883
0.3843028379545487,2.9901942002656883
0.3843028379545487,2.9901942002656883
0.3843028379545487,2.952407842766477
0.3843028379545487,2.952407842766477
0.3843028379545487,2.952407842766477
0.3843028379545487,2.9901942002656883
0.3879213527135991,2.9901942002656883
0.4124554609548447,2.9901942002656883
0.40262167924764286,2.9901942002656883
0.4124554609548447,3.0953981301879687
0.4728234772986701,3.2696890869315705
0.48836775956428474,3.567241351250875
0.48836775956428474,3.567241351250875
0.48836775956428474,4.0795615551224
0.48836775956428474,4.0795615551224
0.48836775956428474,4.171049177237621
0.48836775956428474,4.171049177237621
0.5808851011045444,4.171049177237621
0.8042699431125497,4.171049177237621
0.8561077750168947,4.171049177237621
0.8619770353223598,4.145477748669038
0.9803675370628747,4.11116481675055
0.9803675370628747,4.11116481675055
0.9803675370628747,4.11116481675055
0.9803675370628747,4.11116481675055
0.9803675370628747,4.11116481675055
0.9803675370628747,4.082606049540624
0.9252009418194838,4.082606049540624
0.7624804709627835,4.082606049540624
0.7312356677480615,4.082606049540624
0.7312356677480615,4.082646636301543
0.7312356677480615,4.082646636301543
0.7312356677480615,4.082646636301543
0.7312356677480615,4.082646636301543
0.7624804709627835,4.082646636301543
0.7930992564559197,4.103358030909911
0.9135208287876836,4.082606049540624
0.9157884079506007,4.125746117675921
0.9797654965439435,4.016190036625234
1.0929763704823945,3.8666030827335467
1.2935663295048303,3.841636706325493
1.59246172522511,3.841636706325493
1.6755585817798286,3.841636706325493
1.7732335189206416,3.587711755924308
1.8230755600197155,3.5645140215053535
1.988671855172925,3.2004338812415867
2.0257665607176927,3.2004338812415867
2.0668168097178192,3.2004338812415867
2.0668168097178192,3.2004338812415867
2.035373374878122,3.147240692104726
2.035373374878122,3.147240692104726
2.035373374878122,3.147240692104726
2.0257665607176927,3.147240692104726
2.015796334134687,3.147240692104726
2.015796334134687,3.2004338812415867
2.015796334134687,3.2290214505771995
2.015796334134687,3.2290214505771995
2.015796334134687,3.1271508989821863
2.015796334134687,3.1271508989821863
2.015796334134687,3.1271508989821863
1.9533976180086352,3.2398480569959562
1.9490189219386735,3.2398480569959562
1.9490189219386735,3.2398480569959562
2.015796334134687,3.2398480569959562
1.9363250504852532,3.2398480569959562
1.9363250504852532,3.2398480569959562
1.8357082318827662,3.291402943021931
1.8101256308204006,3.291402943021931
1.809905758385949,3.3754473846102098
1.619888594799476,3.4306212962987126
1.579446475206777,3.4306212962987126
1.5602287984939653,3.4306212962987126
1.430089143890135,3.4380073072679704
1.430089143890135,3.4380073072679704
1.4261950521096454,3.4380073072679704
1.4261950521096454,3.4380073072679704
1.4261950521096454,3.4380073072679704
1.4261950521096454,3.576494617908985
1.4261950521096454,3.747517769458871
1.4261950521096454,3.747517769458871
1.430089143890135,3.6794270198230654
1.430089143890135,3.6794270198230654
1.4193819210645722,3.6794270198230654
1.4339831637351002,3.6794270198230654
1.4466298872410657,3.710970966370989
1.475104342882338,3.710970966370989
1.4777086365379062,3.6794270198230654
1.4827039996028861,3.6210498573163212
1.4827039996028861,3.6210498573163212
1.4827039996028861,3.6210498573163212
1.4827039996028861,3.6794270198230654
1.5399125603886854,3.689854989638132
1.6302046348228902,3.5854783386436275
1.6302046348228902,3.498870592550337
1.6581205239603716,3.498870592550337
1.6663269145684814,3.498870592550337
1.6663269145684814,3.498870592550337
1.6663269145684814,3.409121309464922
1.7916011923280741,3.2238912496898706
1.8075820721882516,3.0708093680216395
1.8075820721882516,2.8309635281346117
1.705693411455387,2.6205194528812368
1.6663269145684814,2.4472389445069838
1.6663269145684814,2.4472389445069838
1.6581205239603716,2.4472389445069838
1.6133279192799317,2.4472389445069838
1.524877345954955,2.4472389445069838
1.4471356043294212,2.3411111703374616
1.2488958943034922,2.3411111703374616
1.2128486987213623,2.3411111703374616
1.1946243630643862,2.3411111703374616
1.0842903022526769,2.4582063145492024
1.0190265360911361,2.5756280668013023
0.9937366290426604,2.6009239784875695
0.907615731291441,2.5756280668013023
0.8772967243073346,2.5756280668013023
0.808767243832151,2.5756280668013023
0.7346287587321775,2.652413459242414
0.6917113331450949,2.8313514923968777
0.6917113331450949,2.8313514923968777
0.6917113331450949,2.7783511169976878
0.6917113331450949,2.7783511169976878
0.7346287587321775,2.7783511169976878
0.7503736573385262,2.8313514923968777
0.7503736573385262,2.751022573965556
0.7503736573385262,2.751022573965556
0.7503736573385262,2.6098887498232775
0.7689861361324808,2.6098887498232775
0.8604281751859404,2.6098887498232775
0.8604281751859404,2.6098887498232775
0.9914874899092994,2.5345066009440522
1.0833329914557477,2.4426498153207774
1.2305710420712248,2.2984300660844674
1.2976333723998843,2.2221879244970943
1.342497318599724,2.2221879244970943
1.610307134344422,2.2221879244970943
1.610307134344422,2.216780833951575
1.6799446288509516,2.01959645303556
1.7929478134537515,1.913291851959925
1.7929478134537515,1.913291851959925
1.8678129390676899,1.913291851959925
1.966770873173722,1.913291851959925
1.966770873173722,1.9617703581854515
1.9912059857950055,1.9617703581854515
1.9912059857950055,1.9617703581854515
1.9912059857950055,1.9617703581854515
1.9912059857950055,1.9617703581854515
2.0214156076600673,2.01959645303556
2.0214156076600673,2.010988896318088
2.0214156076600673,2.0208994293269193
2.0214156076600673,1.8399637511198665
2.0214156076600673,1.8399637511198665
2.4239033345687986,1.7657193721390039
2.4540378158289373,1.7569452290626382
2.6800223003286643,1.7569452290626382
2.9599281978378325,1.7569452290626382
2.9599281978378325,1.7569452290626382
2.9599281978378325,1.7569452290626382
2.9599281978378325,1.7569452290626382
2.765942531731744,1.7569452290626382
2.711949418007779,1.8442844822125306
2.711949418007779,1.8599577387957495
2.711949418007779,1.8623982058327444
2.711949418007779,1.8880475271957546
2.77665588532187,1.8996108427569394
2.711949418007779,1.9168669591564722
2.711949418007779,1.9447158255328691
2.711949418007779,1.9182732917668988
2.711949418007779,1.9182732917668988
2.711949418007779,1.9182732917668988
2.8135960096301993,1.9182732917668988
2.903110150857626,1.9182732917668988
3.0044830106939457,2.0456115459269624
2.8567075700112974,1.9192862399965
2.6898529107373057,1.9440096435722047
2.6898529107373057,2.030484572038319
2.8567075700112974,2.030484572038319
2.8567075700112974,2.030484572038319
2.6898529107373057,2.240656407791026
2.6898529107373057,2.030484572038319
2.6898529107373057,2.030484572038319
2.6898529107373057,2.030484572038319
2.6898529107373057,2.030484572038319
2.6898529107373057,2.030484572038319
2.7104901247641995,2.1680614586454534
2.845802260490554,2.2381157451592113
2.7699641558181116,2.1680614586454534
2.7699641558181116,1.9478840245729783
2.7699641558181116,1.9323795023618549
2.8569084893880623,1.9323795023618549
2.9388562431654606,1.9478840245729783
2.9388562431654606,1.9478840245729783
2.9388562431654606,1.9478840245729783
2.9388562431654606,1.9478840245729783
2.9388562431654606,1.9478840245729783
2.7699641558181116,1.9478840245729783
2.3869887210857654,2.0183250632212832
2.31573039325583,2.078123181469278
2.0793539603467273,2.1382706754618357
2.0793539603467273,2.1386985534878917
2.0793539603467273,2.1386985534878917
2.0793539603467273,2.1386985534878917
2.0793539603467273,2.2902695036586573
2.0793539603467273,2.3572511124293563
2.0793539603467273,2.3572511124293563
2.0793539603467273,2.2902695036586573
2.0793539603467273,2.280708637642756
2.3712417061206676,2.1382706754618357
2.8048741635194574,2.0418264479549713
2.94205838100927,1.6369153687077251
2.9555810280263164,1.6369153687077251
2.9555810280263164,1.3343534962779449
2.9555810280263164,1.3343534962779449
3.2135019687103274,1.3343534962779449
3.299863754264124,1.3341988729800165
3.245431271349374,1.3082447750745285
3.245431271349374,1.3082447750745285
3.245431271349374,1.3082447750745285
3.3398877063806243,1.3082447750745285
3.3398877063806243,1.3082447750745285
3.2243376577981313,1.3082447750745285
3.2243376577981313,1.3871273297971003
3.2243376577981313,1.453216523966135
3.2243376577981313,1.453216523966135
3.2243376577981313,1.8218603650267502
2.774188285857777,2.0163920780756266
2.7477473751216346,2.0737137189392447
2.5995299883952314,2.128077513468306
2.5995299883952314,2.2160969848977197
2.5995299883952314,2.128077513468306
2.5995299883952314,2.051950367836942
2.5995299883952314,2.051950367836942
2.5995299883952314,2.051950367836942
2.5995299883952314,2.051950367836942
2.5995299883952314,2.051950367836942
2.5995299883952314,2.051950367836942
3.0798243057604084,2.051950367836942
2.5995299883952314,2.081936421781465
2.325361949354135,2.3160668259571002
1.5787159055630424,2.3160668259571002
1.5469494759505085,2.5313700269145536
1.5224066003331822,2.58281561014764
1.5083339368768283,2.6417195623618888
1.418204736872731,2.7550078185198585
1.3992443486072894,2.8830019656134183
1.3087981594285474,3.2546076513077398
1.0746051901723186,3.3468153666909455
1.0746051901723186,3.5122551917566955
1.0746051901723186,3.6416042596663254
1.0746051901723186,3.561532229096928
1.3087981594285474,3.5122551917566955
1.3703923722383955,3.4558436048407897
1.3703923722383955,3.2707384888336053
1.3992443486072894,3.106643149804434
1.1524312176695963,2.9546436691898035
1.1524312176695963,2.9546436691898035
1.202549927395214,2.9546436691898035
1.202549927395214,2.898365303481444
1.1425051389699765,2.897964753491651
0.9708547279779736,2.8717850607269746
0.6545311252617073,2.8717850607269746
0.6322510944483906,2.898365303481444
0.5764454642022968,2.9755376756609584
0.49920558767068834,2.9755376756609584
0.47642117771686965,2.9755376756609584
0.4331360899151963,3.0079792915818144
0.4331360899151963,3.044704049919747
0.4331360899151963,3.044704049919747
0.4331360899151963,3.044704049919747
0.4331360899151963,3.044704049919747
0.4331360899151963,3.044704049919747
0.3929946937599386,3.0488688370724617
0.36214865109149064,3.0488688370724617
0.3253808799019653,3.0488688370724617
0.33181178731862637,3.0488688370724617
0.33181178731862637,3.0469523141869312
0.3253808799019653,3.0469523141869312
0.3253808799019653,3.0469523141869312
0.3253808799019653,3.0488688370724617
0.3253808799019653,3.0813753628167797
0.3253808799019653,3.0813753628167797
0.3253808799019653,3.0469523141869312
0.3253808799019653,2.9229597417377877
0.33181178731862637,2.8883947114897035
0.4020519835534587,2.8883947114897035
0.4217648335562589,2.8883947114897035
0.4217648335562589,2.8883947114897035
0.4217648335562589,2.8883947114897035
0.48934471188524437,2.8883947114897035
0.38043459898837384,2.8883947114897035
0.37087694598885856,2.8883947114897035
0.3546323294029629,2.9229597417377877
0.30989690747882165,2.9975549002888613
0.3003772485066512,3.1243745456293066
0.2868835411233402,3.1243745456293066
0.2868835411233402,3.1248858641372337
0.2868835411233402,3.1248858641372337
0.2868835411233402,3.1248858641372337
0.2868835411233402,3.015922733224238
0.2868835411233402,3.0886038406067127
0.2868835411233402,3.1248858641372337
0.2868835411233402,3.1666093765396863
0.31373574811756183,3.1666093765396863
0.31373574811756183,3.1666093765396863
0.33664353496001975,3.254903299720234
0.36485166630638344,3.377581704560934
0.49757360375451126,3.663946344093762
0.5292831027596989,3.837811419187217
0.5292831027596989,4.067358742813723
0.5292831027596989,4.087289888106537
0.5292831027596989,4.171839455726809
0.5292831027596989,4.214476257057668
0.6458535109405223,4.191244102341751
0.7900074171636485,4.189377808612798
0.874158018678483,4.132517091029599
0.9972434262361353,4.1266906281602305
1.1475426910293454,4.1266906281602305
1.1475426910293454,4.1266906281602305
1.1475426910293454,4.09948931227449
1.13947580426942,4.081702310028775
1.0401969685387875,4.023018068463465
0.8433701070124654,4.023018068463465
0.7824586093096596,4.023018068463465
0.767649085056851,4.023018068463465
0.767649085056851,4.049682295012044
0.767649085056851,4.049682295012044
0.767649085056851,4.049682295012044
0.767649085056851,4.049682295012044
0.7824586093096596,4.049682295012044
0.7824586093096596,4.093713840982362
1.005797689808848,4.049682295012044
1.1854789601693665,4.093713840982362
1.2927218943416705,3.800640446653963
1.338383103546688,3.7700968571220934
1.6382592463486358,3.7700968571220934
1.655898443302407,3.741070359170707
1.739323351008045,3.4040025032505796
1.8724656139926628,3.3819408652873384
1.9192411349504963,2.728949444053256
1.9746519601101349,2.580389548244201
1.9746519601101349,1.9738762519889905
2.26900520698908,1.9738762519889905
2.3605960291607184,1.9738762519889905
2.6091531519306987,1.9738762519889905
2.725294930529497,1.9738762519889905
2.6091531519306987,1.9738762519889905
2.565600152345035,1.9738762519889905
2.339318813995072,1.9738762519889905
2.243182653996613,1.9738762519889905
2.113882042806784,2.4126007531098024
2.1038995687257156,2.563088776569487
2.0652064282968747,2.7249900591613727
2.020537503013872,2.8547038322863396
1.8205205315849013,2.8547038322863396
1.6248736964500707,3.184181406965764
1.599878750213566,3.402622789479285
1.561652002289432,3.402622789479285
1.5257338278388846,3.402622789479285
1.5090787434319544,3.402622789479285
1.474635746387519,3.402622789479285
1.3840214614023967,3.6981212940745616
1.3840214614023967,3.6981212940745616
1.3840214614023967,3.700161756090535
1.3599164451797106,3.6669751904646604
1.3599164451797106,3.6669751904646604
1.3599164451797106,3.6669751904646604
1.3840214614023967,3.6669751904646604
1.3908892949457454,3.6669751904646604
1.4058439842385235,3.586638457954649
1.5113083913645284,3.586638457954649
1.6194536447056427,3.586638457954649
1.6194536447056427,3.586638457954649
1.6194536447056427,3.613552925071611
1.6194536447056427,3.613552925071611
1.6305534916289746,3.613552925071611
1.6020196512171734,3.613552925071611
1.6020196512171734,3.613552925071611
1.6020196512171734,3.613552925071611
1.6020196512171734,3.6105466330570652
1.6020196512171734,3.6105466330570652
1.6020196512171734,3.2126613907717587
1.6020196512171734,3.2126613907717587
1.8323308057539953,2.8667761422252322
1.8702880481510258,2.7395813974698093
2.360687841243789,2.3023439887791546
2.492714764130462,2.0176851315808135
2.68367151583335,2.0176851315808135
2.941816753823993,2.0176851315808135
2.8293332942614327,1.788123049390735
2.7369567492539484,1.751408749180045
2.7455036433759594,1.6978364037558211
2.760585886080088,1.6978364037558211
2.519318025164273,1.6978364037558211
2.4497347230466144,1.6978364037558211
2.1849225955832865,1.751408749180045
1.5832403938805346,1.8652875844335117
1.5371968095860244,1.8652875844335117
1.4328116015552943,1.8652875844335117
1.3629528319537074,1.8652875844335117
1.294533684393379,1.9335162880026031
1.2046597512801076,2.2882328131020198
1.1658741517484514,2.4523051712575996
0.935570795031936,2.6986466698792206
0.9032117250375461,2.6986466698792206
0.9032117250375461,2.6986466698792206
0.90270325214282,2.7560740751030366
0.90270325214282,2.8159752027472416
0.90270325214282,2.8159752027472416
0.90270325214282,2.7560740751030366
0.8961515016865039,2.7560740751030366
0.8927981269056601,2.7560740751030366
0.8798100960453814,2.8159752027472416
0.8558955899106367,2.8159752027472416
0.8558955899106367,2.7325917611172486
0.8425921914363844,2.7325917611172486
0.8231718390405932,2.7325917611172486
0.8125260911647276,2.7325917611172486
0.7786667819451246,2.775444830272682
0.7786667819451246,2.775444830272682
0.7786667819451246,2.775444830272682
0.7786667819451246,2.775444830272682
0.7786667819451246,2.775444830272682
0.7801823285332048,2.775444830272682
0.7801823285332048,2.8239025048659694
0.7801823285332048,2.775444830272682
0.7801823285332048,2.6035781896849195
0.891551647954139,2.6035781896849195
0.9040130492484759,2.6035781896849195
0.9812866003233679,2.6035781896849195
1.0654667862345248,2.5771619250195847
1.1138726462798896,2.5361710769368604
1.169103315011788,2.471074769782322
1.3062296671430467,2.455374504742297
1.4024066300698568,2.455374504742297
1.4988839648631334,2.2169662469072176
1.5163081332260924,2.17166196142222
1.5163081332260924,2.125698615452279
1.5481153121678286,1.96772079736281
1.5617083420743592,1.9234013167037056
1.6778920419408123,1.6766029475041095
1.8198901525386424,1.6766029475041095
2.352834449998084,1.6766029475041095
2.352834449998084,1.6766029475041095
2.3784788960579117,1.6766029475041095
2.3876748420875025,1.6766029475041095
2.6358248062058576,1.6766029475041095
2.655434701437309,1.513507796446423
2.655434701437309,1.513507796446423
2.655434701437309,1.6349808823770877
2.655434701437309,1.6349808823770877
2.655434701437309,1.79364288112078
2.655434701437309,1.79364288112078
2.655434701437309,1.79364288112078
2.809981159747513,1.8682594248766744
2.8564181558005255,1.9361893700170218
3.142999205365898,1.6349808823770877
3.1144058628319966,1.6349808823770877
3.1387214047451373,1.6349808823770877
3.1714490908705204,1.8226870416760732
3.1714490908705204,1.7290617582972254
3.1144058628319966,1.7290617582971708
3.1144058628319966,1.5446368768875374
3.1144058628319966,1.5315121683189752
3.1144058628319966,1.5315121683189752
3.1387214047451373,1.5315121683189752
3.1387214047451373,1.5315121683189752
3.1387214047451373,1.5315121683189752
3.0678133032939665,1.5446368768875374
3.0115928846386972,1.708661666928499
3.0115928846386972,1.686964066284141
3.0115928846386972,1.686964066284141
2.9204513652303286,1.686964066284141
2.8562011982592996,1.708661666928499
2.74242973295739,1.7148619077415779
2.74242973295739,1.686964066284141
2.74242973295739,1.6127993936684428
2.74242973295739,1.6127993936684428
2.658192239726504,1.6127993936684428
2.658192239726504,1.4947636240277589
2.658192239726504,1.4441833467948868
2.658192239726504,1.4441833467948868
2.658192239726504,1.4441833467948868
2.658192239726504,1.4441833467948868
2.7676897838260697,1.4441833467948868
2.6990294409752833,1.4441833467948868
2.5872508441002005,1.464545519217443
2.5872508441002005,1.464545519217443
2.5872508441002005,1.464545519217443
2.731940812657468,1.464545519217443
2.412969494500709,1.6544327584603518
2.3104946289147827,2.050707180985589
2.3104946289147827,2.050707180985589
2.3104946289147827,2.0623786643946045
2.3104946289147827,2.050707180985589
2.3104946289147827,1.9597394884663828
2.250023763806743,1.9597394884663828
2.250023763806743,1.9597394884663828
2.250023763806743,1.9597394884663828
2.250023763806743,1.9597394884663828
2.250023763806743,1.9597394884663828
2.3607944005651724,1.9597394884663828
2.596007145165154,1.9597394884663828
2.7621120011268467,2.022687034699497
2.995268237661065,1.9597394884663828
2.995268237661065,2.022687034699497
3.012058231885897,2.0332900918742065
3.0526188128151848,2.0332900918742065
3.012058231885897,2.0332900918742065
3.012058231885897,1.9102018727977823
3.012058231885897,1.9102018727977823
3.012058231885897,1.9102018727977823
3.012058231885897,1.9102018727977823
3.23483336563725,1.9102018727977823
3.209086512783145,1.9102018727977823
2.9588441512522885,2.100539782076373
2.820132468712904,2.1712346807861156
2.5613407651650424,2.1712346807861156
2.5613407651650424,2.1712346807861156
2.5613407651650424,2.1963770014888966
2.201519166991842,2.275175436815173
2.201519166991842,2.362014134014141
2.201519166991842,2.362014134014141
2.201519166991842,2.362014134014141
2.1433077391587023,2.362014134014141
2.0617320878108623,2.362014134014141
2.207708911186765,2.3834482275921816
2.207708911186765,2.624575590915218
2.207708911186765,2.8799570581183
2.015174087367704,2.9343524950782793
1.8078342422871483,3.1242509344758522
1.8605866499830364,3.25690161977391
1.805795894910756,3.3202364166379614
1.614421163964378,3.464979512243791
1.4687665913215397,3.464979512243791
1.4687665913215397,3.5265128612775545
1.4687665913215397,3.4275169326977335
1.4687665913215397,3.417340586445467
1.4687665913215397,3.3489005895139115
1.4687665913215397,3.1337096799724713
1.4687665913215397,3.006444440227059
1.3551676207490355,2.8453375572172104
1.3551676207490355,2.8453375572172104
1.3551676207490355,2.8453375572172104
1.3235400256874499,2.8453375572172104
1.2001947073966015,2.7872850916358116
1.1134055746468674,2.6253025136361927
1.042409137791195,2.492754790386039
0.9880872369432474,2.6382200026161144
0.9152207770510857,2.8453375572172104
0.8232231085595436,2.8453375572172104
0.6994940623778141,2.8453375572172104
0.6383617873512762,2.871486659762161
0.4869352406496332,2.871486659762161
0.4869352406496332,2.871486659762161
0.4695508105705914,2.871486659762161
0.4536001578858495,2.937287972849502
0.4536001578858495,2.941048003183557
0.4536001578858495,2.9905398220255015
0.4536001578858495,2.941048003183557
0.4536001578858495,2.941048003183557
0.4663363334975773,2.941048003183557
0.4695508105705914,2.941048003183557
0.4869352406496332,2.937287972849502
0.5193120933582227,2.9270416442031464
0.5193120933582227,2.859788748868042
0.5256163613757052,2.859788748868042
0.5965792365258478,2.859788748868042
0.6044154447305544,2.9112576698738324
0.6098729074090397,2.9112576698738324
0.6640957760747859,2.8362203239356765
0.6640957760747859,2.8362203239356765
0.6640957760747859,2.8362203239356765
0.6640957760747859,2.8362203239356765
0.5581709423923004,2.9112576698738324
0.5581709423923004,2.9112576698738324
0.5581709423923004,2.9112576698738324
0.507659620115286,2.851627748864635
0.5062885342168171,2.851627748864635
0.4935304193135819,2.851627748864635
0.445632055734202,3.066129890163421
0.3236489644399552,3.07704128816215
0.3236489644399552,3.07704128816215
0.3236489644399552,3.07704128816215
0.3236489644399552,2.937677469883446
0.3236489644399552,2.937677469883446
0.3236489644399552,3.0860194411842006
0.30340009453180816,3.2081565937559287
0.2950577454112072,3.2717865761272718
0.24929933346472602,3.2777667536577972
0.24929933346472602,3.2777667536577972
0.2950577454112072,3.3749699125729675
0.352652126027905,3.5966082614146946
0.352652126027905,4.036573182320822
0.352652126027905,4.103171690552299
0.352652126027905,4.108871292231793
0.352652126027905,4.1364859822232845
0.5468670940611007,4.188295148226634
0.6257381996369623,4.159254692332762
0.7651545703176659,4.159254692332762
0.9586669734611161,4.159254692332762
1.0696751026242055,4.159254692332762
1.1205070730398554,4.108871292231793
1.1362725139233678,4.006650233878757
1.1362725139233678,3.9889131825257893
1.1205070730398554,3.9889131825257893
1.1205070730398554,3.9889131825257893
1.0696751026242055,4.006650233878757
0.8269877274641633,4.006650233878757
0.8117346951594567,4.006650233878757
0.8010900263259351,4.006650233878757
0.8010900263259351,4.006650233878757
0.8010900263259351,4.027713691275264
0.8010900263259351,4.006905306454713
0.8010900263259351,4.006905306454713
0.8010900263259351,4.006905306454713
0.8300904714607298,3.79294806875209
1.0297166787475218,3.4287130104745205
1.5107139016512272,3.4287130104745205
1.8485958125952595,3.4120325779784166
1.9367161678059792,3.307427338204179
2.1590984450506854,3.0742387212078444
2.18573230499195,3.0709491686985757
2.4352459153071764,3.0709491686985757
2.4964777450108944,3.0709491686985757
2.4964777450108944,3.0709491686985757
2.4787220918137463,3.0245249172246518
2.4787220918137463,3.0245249172246518
2.4136909851931367,3.0245249172246518
2.4136909851931367,3.0245249172246518
2.4136909851931367,3.100395823116015
2.4136909851931367,3.0709491686985757
2.4136909851931367,3.0709491686985757
2.310745148034389,2.950634942428866
2.262398891170354,2.950634942428866
2.262398891170354,2.950634942428866
2.203503862225291,2.950634942428866
2.203503862225291,3.1491933139572295
2.175672341409834,3.1457714506469108
2.175672341409834,3.1457714506469108
2.05779965881691,3.1457714506469108
2.0266917554723776,3.1457714506469108
1.9745978987944428,3.4534106713894883
1.5141302072896428,3.4534106713894883
1.3020334721702331,3.5542763075571733
1.174777766440628,3.5542763075571733
1.167884928094787,3.5542763075571733
1.167884928094787,3.5542763075571733
1.167884928094787,3.6685447787755128
1.167884928094787,3.6685447787755128
1.167884928094787,3.768738787816527
1.1218968286328013,3.768738787816527
1.1218968286328013,3.768738787816527
1.174777766440628,3.768738787816527
1.1770754696763557,3.84625118745871
1.273123760887159,3.8647282394605607
1.2938216247789855,3.84625118745871
1.3029789613792702,3.84625118745871
1.3976037583335739,3.84625118745871
1.4028532538642373,3.84625118745871
1.4028532538642373,3.52138464290156
1.4153602873163442,3.52138464290156
1.439788292063133,2.804092728976928
1.6187548504248552,2.804092728976928
1.9098139755254324,2.4160284444352693
2.070492808143807,2.4160284444352693
2.4394068386845618,2.4160284444352693
2.4394068386845618,2.4160284444352693
2.6690757904869424,2.4160284444352693
2.773651622332977,2.4160284444352693
2.83131073758526,2.4160284444352693
2.83131073758526,2.4160284444352693
2.83131073758526,2.491901575066609
2.83131073758526,2.6188093941133292
2.9651673044492166,2.7245985189654403
3.076752969913677,2.7245985189654403
3.076752969913677,2.259443836247767
3.13727034377321,2.074268758260869
3.13727034377321,2.057956358293369
3.1656604815089544,2.0517510686376204
3.2152992101861098,2.0517510686376204
3.13727034377321,2.0517510686376204
3.13727034377321,2.0517510686376204
2.1640309637103705,2.0517510686376204
1.949232209630792,2.0517510686376204
1.5863052466914649,2.0517510686376204
1.3972259754460463,2.0517510686376204
1.2658889735266121,2.104183570319536
1.0976291985639477,2.3431180848478363
0.9632780562283372,2.491425099037303
0.9244851960049855,2.534209359910472
0.9091924352872542,2.534209359910472
0.9037243484437225,2.534209359910472
0.843452712403211,2.6258620113244375
0.7963114922946533,2.733243333112694
0.7704637004499848,2.733243333112694
0.735241681252191,2.733243333112694
0.735241681252191,2.733243333112694
0.735241681252191,2.733243333112694
0.735241681252191,2.818039126354828
0.735241681252191,2.8402475957128894
0.735241681252191,2.8402475957128894
0.735241681252191,2.818039126354828
0.735241681252191,2.818039126354828
0.8654928044185946,2.818039126354828
0.8654928044185946,2.818039126354828
0.9309246340921312,2.8402475957128894
0.9713658184863623,2.6969205057916312
1.0859347975184908,2.6822611144161277
1.0893559570268507,2.6822611144161277
1.1075991660431894,2.6822611144161277
1.1144534735494105,2.6969205057916312
1.1247806943224237,2.7137749116611176
1.1416252727988323,2.7137749116611176
1.2203403564323148,2.6969205057916312
1.2353865099215016,2.6452287954467524
1.3095196751724583,2.6452287954467524
1.3597748431352161,2.64202878020166
1.3721680397741183,2.474959065722816
1.422255901102814,2.397693593351673
1.422255901102814,2.397693593351673
1.422255901102814,2.397693593351673
1.5572376752167776,2.397693593351673
1.6444714677908043,2.3423960813881095
1.66232109260995,2.1434249828341203
1.7243858098328435,2.0248169309118222
1.782811639954469,2.0248169309118222
1.782811639954469,2.0248169309118222
2.0255318638450763,1.936982251606626
2.0404343929535944,1.936982251606626
2.088948988908005,1.936982251606626
2.449032894617628,1.907540560494121
2.535867533274761,1.907540560494121
2.535867533274761,1.7521518808578238
2.535867533274761,1.7521518808578238
2.6432328461252323,1.907540560494121
2.748145485602536,1.9104999741863185
2.774852174311497,1.9104999741863185
2.774852174311497,1.9104999741863185
2.774852174311497,1.995775266116745
2.8675855928773735,1.995775266116745
2.794899923688518,1.995775266116745
2.702309592796856,1.9987490225210414
2.656355120554943,1.9987490225210414
2.327131349526558,2.046573610248533
2.327131349526558,2.046573610248533
2.20291025335802,2.04351349134716
2.20291025335802,1.8302214148098295
2.20291025335802,1.8015545351632238
2.20291025335802,1.6003740901560846
2.20291025335802,1.5055613182385712
2.20291025335802,1.2485295366055547
2.20291025335802,1.2485295366055547
2.2416068140086787,1.2485295366055547
2.3180367425565356,1.2485295366055547
2.682409227641879,1.2485295366055547
2.808192678843305,1.2485295366055547
2.9294065153220497,1.2485295366055547
3.111602006188133,1.2485295366055547
2.8083214145385607,1.9137830443613557
2.6892389947790805,1.9801656201893607
2.6823692543211832,1.9801656201893607
2.6823692543211832,1.9822692391977728
2.6823692543211832,2.070179280125791
2.6823692543211832,2.070179280125791
2.6823692543211832,2.070179280125791
2.653231695194468,2.1850454073825407
2.653231695194468,2.206624420485582
2.653231695194468,2.206624420485582
2.653231695194468,2.206624420485582
2.653231695194468,2.206624420485582
2.641785057468785,2.140453233848608
2.641785057468785,2.140453233848608
2.1592314802396815,2.140453233848608
2.0492178441633673,2.140453233848608
2.0492178441633673,2.140453233848608
2.0405739600102755,2.140453233848608
2.0405739600102755,2.0936290946733087
2.0405739600102755,2.049513218711486
2.0405739600102755,1.8871240311777315
2.0405739600102755,1.8615739842504542
2.0405739600102755,1.8025169269219798
2.0405739600102755,1.6880584486988723
2.0492178441633673,1.6880584486988723
2.0739229365225316,1.6880584486988723
2.38098751629174,1.6880584486988723
3.056765482844344,1.6880584486988723
3.6263408918084505,1.6880584486988723
3.851314255538264,1.6880584486988723
3.7443832112336533,1.6880584486988723
3.1489973737352686,1.6970445002556138
2.9736867565014156,1.7427269296550643
2.9736867565014156,1.8259309425188417
2.9736867565014156,1.8786186709252177
3.1489973737352686,1.8786186709252177
2.838155678878537,1.8817799962333719
2.7357978916794585,1.8817799962333719
2.6806098709207515,1.8259309425188417
2.6806098709207515,1.785860797262195
2.6806098709207515,1.785860797262195
2.6806098709207515,1.785860797262195
2.6547402182785556,1.785860797262195
2.6547402182785556,1.8817799962333719
2.6547402182785556,1.9557930848405216
2.6547402182785556,1.9557930848405216
2.6547402182785556,1.9557930848405216
2.7871860612740162,1.9557930848405216
2.8171256863992538,2.0575557405196987
2.989463302202281,2.0575557405196987
3.3772184357983277,2.228090842481881
3.3772184357983277,2.248189252821827
3.479148299374694,2.248189252821827
3.44259593302646,2.248189252821827
3.2903661631682297,2.3157080304598803
3.0589500981731326,2.3157080304598803
2.899968332875282,2.3157080304598803
2.686690371556531,2.3157080304598803
2.166615763102563,2.3157080304598803
1.920263534228611,2.3157080304598803
1.6432167632155947,2.44948974278321
1.6001457664385432,2.6037719170164526
1.6001457664385432,2.7195264615411303
1.6001457664385432,3.2731876736450523
1.6001457664385432,3.2731876736450523
1.6001457664385432,3.3572025100908705
1.6001457664385432,3.3426040196543783
1.6001457664385432,3.09878716715319
1.4329046983243825,3.0053897586629787
1.4329046983243825,2.8415735393169994
1.4329046983243825,2.8415735393169994
1.2163815327658425,2.8415735393169994
1.4329046983243825,2.8415735393169994
1.1496066540324947,2.779521401296521
0.9863331662021557,2.7487608738106393
0.8669174574236848,2.7487608738106393
0.7804899034472746,2.8415735393169994
0.7201140985554126,2.935111093856644
0.681581165041189,2.935111093856644
0.5169238493049779,2.931297745567261
0.5140003910929072,2.931297745567261
0.4862558989810704,2.9042773813679057
0.4838499716096242,2.9042773813679057
0.4809634249504656,2.9042773813679057
0.4518637840923554,2.931297745567261
0.44492132173110627,2.98663666482275
0.42144347134045346,2.98663666482275
0.42144347134045346,2.98663666482275
0.42144347134045346,2.98663666482275
0.42144347134045346,2.98663666482275
0.42144347134045346,2.972196495556534
0.42144347134045346,2.927025710931676
0.42144347134045346,2.85207375000164
0.4242469177751005,2.7781006404500377
0.5180025556391377,2.7781006404500377
0.5462287854084913,2.7781006404500377
0.5462287854084913,2.7781006404500377
0.5462287854084913,2.7781006404500377
0.5462287854084913,2.7781006404500377
0.4898961007466651,2.7781006404500377
0.2808426267701265,2.7781006404500377
0.2796322219126774,2.7781006404500377
0.26002556535896987,2.863513221417957
0.24449613951402965,3.0974424070326956
0.16676093485638047,3.1139123924977063
0.16676093485638047,3.134102797915797
0.16676093485638047,3.1579574454920087
0.16676093485638047,3.1579574454920087
0.16676093485638047,3.1135230146808497
0.16676093485638047,3.0974424070326956
0.16676093485638047,3.1579574454920087
0.16676093485638047,3.1593764849538184
0.26192135711031383,3.2042795290718917
0.26192135711031383,3.214305994553688
0.2960586815114039,3.2423227894009274
0.4136763930388511,3.3597614224208847
0.5075801982182364,3.61668682134884
0.5479621740791655,3.61668682134884
0.5479621740791655,4.052494857360406
0.5479621740791655,4.085316257340903
0.5479621740791655,4.136589939827794
0.5479621740791655,4.1666856861209745
0.5491003938929627,4.1666856861209745
0.7322008234229997,4.1666856861209745
0.8722812432653223,4.1666856861209745
0.9629863752724837,4.137673942954187
0.9784946489634337,4.085578145495028
0.9784946489634337,4.085578145495028
0.9784946489634337,4.085578145495028
0.9784946489634337,4.085316257340903
0.9784946489634337,4.069226050488939
0.8358535323754009,4.065779668529785
0.7442582427834313,4.065779668529785
0.679090492866497,4.065779668529785
0.679090492866497,4.069226050488939
0.679090492866497,4.131252036057482
0.679090492866497,4.131252036057482
0.679090492866497,4.131252036057482
0.679090492866497,4.104971999059589
0.8353580664029753,4.104971999059589
0.8665145211861554,3.9695902397007545
1.1141866419728657,3.9695902397007545
1.260836802529083,3.9563472557579633
1.5485524774997614,3.8904018975699386
1.6700745636737813,3.8904018975699386
1.7823566386179877,3.8904018975699386
1.8245045275932472,3.8904018975699386
1.8404301669574012,3.8904018975699386
1.8404301669574012,3.8904018975699386
1.8404301669574012,3.6925107715481227
1.8249490571177984,3.454360942145058
1.8249490571177984,3.454360942145058
1.787145758935105,3.55333978948301
1.679522308614947,3.7048657239132847
1.6046975549035647,3.55333978948301
1.6046975549035647,3.55333978948301
1.6046975549035647,3.55333978948301
1.6046975549035647,3.55333978948301
1.6046975549035647,3.55333978948301
1.6046975549035647,3.5360712438375828
1.6046975549035647,3.4947447421466937
1.679522308614947,3.1654682941510037
1.679522308614947,3.1654682941510037
1.6845815962067785,3.1654682941510037
1.7272535451127922,3.1654682941510037
1.9459967921196442,3.1654682941510037
1.9942613759032488,3.080518450834869
1.9942613759032488,3.080518450834869
1.795656551712263,3.080518450834869
1.7272535451127922,3.080518450834869
1.6131094528655459,3.2759137421843807
1.3809498646163973,3.5174147482559097
1.3400810884246508,3.5174147482559097
1.3400810884246508,3.5174147482559097
1.3400810884246508,3.5174147482559097
1.3400810884246508,3.5174147482559097
1.3143358348210918,3.581464712114723
1.3054442013865657,3.680964663866285
1.213010057781433,3.680964663866285
1.213010057781433,3.9094431000120005
1.2876789065928957,3.9094431000120005
1.2621980263524266,3.9094431000120005
1.2621980263524266,3.9094431000120005
1.2621980263524266,3.9094431000120005
1.2621980263524266,3.9094431000120005
1.2621980263524266,3.8089021944306967
1.2349473864207408,3.8089021944306967
1.2349473864207408,3.8089021944306967
1.26755205262409,3.8089021944306967
1.2849348999282033,3.788018210423168
1.2876789065928957,3.7842612175318555
1.3024298290039527,3.6451720347593572
1.3320370687472542,3.6451720347593572
1.5326685454250202,3.6451720347593572
1.5876214143995726,3.5553215088761507
1.6339685217829898,3.2989350304598477
1.674854694356778,3.2989350304598477
1.8416976449104956,3.0370373655305407
1.997095253897818,2.935947943473711
2.286405700021099,2.505157331795823
2.5114532930622118,2.4731066166342743
2.8966416124570085,2.406865216523729
2.9102905087071194,2.406865216523729
2.518232154961579,2.406865216523729
2.402712362321719,2.406865216523729
2.324817072575404,2.406865216523729
1.6526381298691117,2.406865216523729
1.415573991762537,2.406865216523729
1.415573991762537,2.406865216523729
1.415573991762537,2.406865216523729
1.415573991762537,2.481102601802524
1.415573991762537,2.406865216523729
1.415573991762537,2.3623316680985837
1.415573991762537,2.3623316680985837
1.415573991762537,2.3623316680985837
1.415573991762537,2.3623316680985837
1.3692986680011838,2.3623316680985837
1.3452485198495905,2.30419984072256
1.2549582328458138,2.2981941563149095
1.2260772225110173,2.2981941563149095
1.2147542556083026,2.2981941563149095
1.1990394447335173,2.2981941563149095
1.0964194496795616,2.524968351942168
1.0596119723591415,2.5643889424829447
1.0596119723591415,2.524968351942168
1.0596119723591415,2.512669766386847
1.0596119723591415,2.512669766386847
1.0964194496795616,2.512669766386847
1.0596119723591415,2.5643889424829447
1.0596119723591415,2.5900771496744617
1.0596119723591415,2.512669766386847
1.0596119723591415,2.512669766386847
1.1066766825954215,2.512669766386847
1.108159762385389,2.512669766386847
1.1383207290073623,2.3261570118159565
1.1793748228062446,2.2868022624390676
1.277831717311188,2.248858851376947
1.277831717311188,2.0897974639309487
1.2965828476693666,2.0897974639309487
1.3326193505445563,2.0897974639309487
1.6774048912016142,2.075227401897029
1.6774048912016142,2.075227401897029
1.948620018331049,1.9838816227962475
2.0325264906799347,1.9838816227962475
2.1481898219213567,1.9838816227962475
2.4677682774168113,1.9838816227962475
2.7490824157802116,1.9864459527764082
2.7490824157802116,2.059013912280984
2.7490824157802116,2.059013912280984
2.3136268943098606,2.059013912280984
2.176376618744008,2.059013912280984
2.045184379642261,2.059013912280984
1.8066232555930553,2.059013912280984
1.5685645881573935,2.2737486734364505
0.9536060526296825,2.2737486734364505
0.9295072803860277,2.2737486734364505
0.9295072803860277,2.2737486734364505
0.9295072803860277,2.4490230145499714
0.9295072803860277,2.7294877610494157
0.9295072803860277,2.7020199153790045
0.9295072803860277,2.7020199153790045
0.9295072803860277,2.7020199153790045
0.9295072803860277,2.7020199153790045
0.9536060526296825,2.622337419805767
1.097364878398099,2.622337419805767
1.231058120290054,2.6020617616437973
1.360301306572034,2.1716379714358975
1.9739833940075315,2.0222566471912673
2.185523452946541,1.802633149647665
2.5444069826435585,1.7999260249686082
2.74828082124592,1.735093537943046
2.959574860028828,1.7222091734965574
2.959574860028828,1.7222091734965574
3.0478666843153537,1.7222091734965574
3.259072495145103,1.7222091734965574
3.058295509832915,1.7222091734965574
2.707204239214579,1.7222091734965574
2.1764653507074985,1.7222091734965574
1.816951986319337,1.7222091734965574
1.6389527817088616,1.8035419730291518
1.6389527817088616,1.8817799962333726
1.6389527817088616,1.8917214269815474
1.4829673173572144,1.9693192087836278
1.3122875951326367,2.11878989195024
1.2961749691449829,2.2336679247926954
1.2961749691449829,2.4199164401622766
1.2961749691449829,2.4199164401622766
1.2961749691449829,2.4199164401622766
1.2961749691449829,2.5847387841963907
1.2961749691449829,2.3081380308095087
1.2961749691449829,2.3081380308095087
1.2961749691449829,2.3081380308095087
1.2961749691449829,2.3081380308095087
1.4349051005620836,2.2711361010667708
1.5740650630513133,2.2285956560796683
1.577088325245981,2.1945778960318214
1.6050016975115229,1.7870004172201535
1.8114140736569109,1.6595176124825002
1.8114140736569109,1.6595176124825002
1.8114140736569109,1.6595176124825002
1.9539604161927224,1.6595176124825002
2.0953377245906646,1.6595176124825002
2.543704765702064,1.6595176124825002
2.9690912837137815,1.6595176124825002
3.0443891073990623,1.6595176124825002
3.0443891073990623,1.7870004172201535
2.4100835040018485,1.7897080379976749
2.104493766265056,1.8123728597209068
2.104493766265056,1.8162149694079213
2.104493766265056,1.8162149694079213
2.104493766265056,1.8321181109888152
2.104493766265056,1.9039158577980102
1.9549272078034863,2.0943994876595418
1.9549272078034863,2.2701641256810543
1.9549272078034863,2.357178903993215
1.9549272078034863,2.2701641256810543
1.9549272078034863,2.0943994876595418
2.131947207483949,1.9069731449901093
2.4309063197035155,1.9069731449901093
2.6667917295484727,2.0943994876595418
2.6667917295484727,1.9069731449901093
2.6667917295484727,1.9069731449901093
3.238513245228316,1.9069731449901093
3.6993635242985135,1.9069731449901093
3.484305179625035,1.899053366613233
3.4277621679775825,1.7967646068045002
3.4277621679775825,1.7967964512933638
3.4277621679775825,1.899053366613233
3.238513245228316,1.899053366613233
3.2079334176305077,1.899053366613233
3.1709054628035753,1.899053366613233
3.1709054628035753,1.9558046076983542
3.1709054628035753,1.9558046076983542
3.1709054628035753,1.9558046076983542
2.766379485095572,1.9558046076983542
2.6572206575749746,2.4591397875240935
2.4186654707243607,2.498137435028124
1.8339453746668186,2.653679604260332
1.596606952352221,2.653679604260332
1.4118535112051225,2.653679604260332
1.3751317234188498,2.653679604260332
1.3751317234188498,2.653679604260332
1.3751317234188498,2.653679604260332
1.3751317234188498,3.091265493218624
1.3751317234188498,3.091265493218624
1.3751317234188498,3.091265493218624
1.3751317234188498,3.0271376964286922
1.3950502591401013,2.963909967100643
1.4456900724626596,2.8204799450368054
1.4456900724626596,2.8204799450368054
1.4456900724626596,2.7674851938643488
1.5469019469237826,2.7674851938643488
1.65733811125284,2.748701494882007
1.65733811125284,2.748701494882007
1.5469019469237826,2.744515333934902
1.4725881548629889,2.748701494882007
1.4456900724626596,2.8066595516647768
1.2262745619683506,2.8066595516647768
0.8826488922815717,2.8066595516647768
0.6617673717572888,2.8066595516647768
0.6617673717572888,2.8066595516647768
0.6617673717572888,2.9242264764645043
0.6617673717572888,2.9242264764645043
0.6617673717572888,2.9263081855091198
0.5792810641347664,3.0430240790166994
0.5440701138831133,3.20412142769755
0.5439092822092231,3.277725936842583
0.5439092822092231,3.437070256168259
0.5440701138831133,3.5304043183044476
0.5792810641347664,3.542311612669487
0.7605119487865345,3.628587487449742
0.7963871024680191,3.6326512166907072
0.7963871024680191,3.789148419598577
0.7963871024680191,4.1431286944889205
0.7963871024680191,3.908543512130071
1.192854263283455,3.9008561890521305
1.6444474268048428,3.789148419598577
2.0125039627908317,2.9034401959578844
1.8438476422101573,2.783960672706238
1.7483453015800503,2.6283058904255574
1.7874852669894217,2.5058206388380935
1.8438476422101573,2.5058206388380935
1.8438476422101573,2.3818317655407983
1.8438476422101573,2.3683225384217192
1.8438476422101573,2.2226525320528268
1.8438476422101573,2.1217303087452772
1.8438476422101573,1.8305718022098876
1.8438476422101573,1.8305718022098876
1.8438476422101573,1.8305718022098876
1.9843376693673571,1.8305718022098876
2.182734797754246,1.764186098839868
2.3238130689114045,1.6060437025354464
2.3751294852108935,1.5591695733165558
2.3751294852108935,1.5591695733165558
2.5935292095908005,1.5591695733165558
2.3751294852108935,1.5591695733165558
2.3751294852108935,1.602991821732115
2.3751294852108935,1.602991821732115
2.3751294852108935,1.3897397228898707
2.3751294852108935,1.3897397228898707
2.3751294852108935,1.3897397228898707
2.3751294852108935,1.3897397228898707
2.4471701333881195,1.602991821732115
2.231274415928096,1.6717916358279263
2.231274415928096,1.6717916358279263
2.176285656903084,1.6717916358279263
2.176285656903084,1.6717916358279263
2.110873574274358,1.7991261003367147
2.0770768254598018,1.8732321441666127
1.99852234231026,1.9546167176530478
1.9393045853248534,1.9546167176530478
1.9393045853248534,2.1337392425491206
1.9393045853248534,2.085536906009344
1.9393045853248534,2.0112246723725553
1.9393045853248534,1.927605361728469
1.9393045853248534,1.927605361728469
1.9393045853248534,1.8581619965228653
1.9393045853248534,1.8581619965228653
1.9393045853248534,1.8581619965228653
1.98302592889038,1.8581619965228653
2.5833992954782645,1.8581619965228653
2.5833992954782645,1.7641463792499248
2.7244545349302443,1.7513326359822932
2.7244545349302443,1.7513326359822932
2.7244545349302443,1.7513326359822932
2.7244545349302443,1.7513326359822932
2.9108760477759246,1.654117989950231
2.7203529030372597,1.468071112235042
2.7203529030372597,1.3867637684861305
2.7203529030372597,1.3867637684861305
2.7203529030372597,1.3867637684861305
2.5807056388687597,1.3867637684861305
2.6847638664626223,1.3867637684861305
2.6847638664626223,1.4519602067408268
2.6847638664626223,1.4519602067408268
2.6847638664626223,1.4519602067408268
2.6589160886247205,1.4519602067408268
2.6341962956805047,1.632499665364714
2.6680148770059553,1.7927314578006197
2.6680148770059553,1.8822819355480171
2.6680148770059553,1.8822819355480171
2.6589160886247205,2.170232199222852
2.6680148770059553,2.212592718410804
2.424761244387789,2.2746628199841723
2.1191216622933893,2.4705882596335123
1.8813603140023012,2.691477680247673
1.8170891097501776,2.982087649537481
1.6601148005823636,2.982087649537481
1.3628037368878854,3.088422822767729
1.3370595991095884,3.088422822767729
1.3106897301375875,3.1708887232931624
1.3106897301375875,3.1708887232931624
1.3043145249890065,3.595151873514766
1.2914268969447567,3.7229187634094414
1.2832587940576416,3.764733435808086
1.254521745415075,3.788856024771969
1.2914268969447567,3.788856024771969
1.254521745415075,3.788856024771969
1.2386160792664616,3.788856024771969
1.2386160792664616,3.788856024771969
1.2386160792664616,3.788856024771969
1.2034279058281283,3.788856024771969
1.1949444126763984,3.788856024771969
1.1949444126763984,3.788856024771969
1.1949444126763984,3.79694175105073
1.2034279058281283,3.788856024771969
1.2034279058281283,3.79694175105073
1.297220863249963,3.6026727154240636
1.297220863249963,3.6026727154240636
1.300173337457873,3.6026727154240636
1.4379475135017734,3.6026727154240636
1.5724957533182469,3.6181220839063912
1.6378408382819647,3.6026727154240636
1.6834621312269387,3.373958451351575
1.7200783659289698,3.373958451351575
1.8166358538144007,3.373958451351575
1.8166358538144007,3.2410557850317443
1.8166358538144007,3.1029715933643325
1.8166358538144007,2.6669100152113177
2.263332161999687,2.426070352305983
2.4748162096904522,2.3190103963679394
2.9172091947304217,2.0936290946732705
2.9664581022427288,1.947059222354185
3.173648340904641,1.9080675913950145
3.173648340904641,1.8098353339221058
3.1736483409047542,1.8098353339221058
3.173648340904641,1.8098353339221058
3.173648340904641,1.8098353339221058
2.7153727966619523,1.8026331496476664
2.289146105613453,1.8026331496476664
2.289146105613453,1.8026331496476664
2.289146105613453,1.7348630783075312
2.289146105613453,1.6096130526392216
2.289146105613453,1.6096130526392216
2.289146105613453,1.4642244093509222
2.289146105613453,1.4642244093509222
2.289146105613453,1.4642244093509222
2.289146105613453,1.4642244093509222
2.489613006975113,1.4642244093509222
2.489613006975113,1.4642244093509222
2.770996269918146,1.4642244093509222
2.770996269918146,1.4642244093509222
2.9133112966441717,1.546149411136235
2.9412782474921446,1.6359731241050013
2.823782167054219,1.7627800975275707
2.8025288133496886,1.764200740790161
2.617709230546048,1.764200740790161
2.617709230546048,1.764200740790161
2.617709230546048,1.764200740790161
2.617709230546048,1.764200740790161
2.8025288133496886,1.8250694617125036
2.823782167054219,1.8401855008227885
2.823782167054219,1.862398205832764
2.823782167054219,1.9687411023447692
2.823782167054219,1.9687411023447692
2.338000478929966,1.9687411023447692
2.4862453128355795,1.9687411023447692
2.9857729005477136,1.9687411023447692
2.9857729005477136,1.9687411023447692
2.9857729005477136,1.9687411023447692
2.9857729005477136,1.9687411023447692
2.9857729005477136,1.8161564092166633
2.9857729005477136,1.8161564092166633
2.9857729005477136,1.8161564092166633
2.9857729005477136,1.8161564092166633
2.9857729005477136,1.8161564092166633
3.4829970599306788,1.8161564092166633
3.742223254592082,1.8161564092166633
3.683254172998551,1.8161564092166633
3.683254172998551,1.8161564092166633
3.683254172998551,1.8710536529757833
3.683254172998551,1.9616464009590249
3.71641510341074,2.1718438652688903
3.71641510341074,2.285323109562168
3.697467470531869,2.285323109562168
3.5987620629056525,2.285323109562168
3.5638682268892876,2.285323109562168
3.5638682268892876,1.7947419367834958
3.5717622392791655,1.570843881675108
3.5717622392791655,1.5698863964017906
3.5717622392791655,1.4810151636084974
3.493987612195197,1.4796244238093998
3.441465761313644,1.339150526711488
3.441465761313644,1.339150526711488
3.441465761313644,1.339150526711488
3.441465761313644,1.339150526711488
2.9600045916989917,1.444420998025832
2.9600045916989917,1.444420998025832
2.9600045916989917,1.444420998025832
2.9600045916989917,1.444420998025832
2.9600045916989917,1.4796244238093998
2.9600045916989917,1.519618618787621
3.096523930915945,1.5700583208386658
3.096523930915945,1.5700583208386658
3.0384285775776436,1.519618618787621
2.9983152890996188,1.4402271625856238
2.9983152890996188,1.4402271625856238
3.0384285775776436,1.4402271625856238
2.9983152890996188,1.4402271625856238
2.9983152890996188,1.4402271625856238
2.9983152890996188,1.4402271625856238
3.0384285775776436,1.4402271625856238
3.0384285775776436,1.4402271625856238
3.0384285775776436,1.4402271625856238
2.9229590181231,1.7253779299077876
2.9229590181231,1.7415962107130938
2.9229590181231,1.8545865557964716
2.6389868127298284,2.083197963912711
2.456778000984984,2.154150795699036
2.4400051274192514,2.315845678385607
2.4299922492653767,2.467510789734341
2.4299922492653767,2.4886564553526376
2.4299922492653767,2.4855794476737687
2.4299922492653767,2.467510789734341
2.4299922492653767,2.416622733809298
2.4299922492653767,1.836415302658589
2.4299922492653767,1.631900023524268
2.4299922492653767,1.5922001304835465
2.7521620707479486,1.5494429656960198
3.219018190205553,1.5494429656960198
3.299365195616141,1.5494429656960198
3.219018190205553,1.5494429656960198
2.668883681114383,1.5494429656960198
2.1163276287623667,1.5494429656960198
1.5804835931806687,1.5494429656960198
1.5804835931806687,1.5922001304835465
1.5804835931806687,1.5922001304835465
1.5804835931806687,1.8933159572825922
1.5804835931806687,2.1814667426304397
1.5804835931806687,2.3918654067108505
1.5804835931806687,2.4278987148914433
1.5804835931806687,2.6166974826453306
1.5804835931806687,2.4619050613499893
1.8313383916449277,2.4616031883311593
1.9149808466565772,2.4616031883311593
2.2703544805090856,2.4173319897960646
2.513431675401549,2.392617075927602
2.7357309508967345,2.2404819052274996
2.8377035999430795,2.2404819052274996
2.7471780184019887,2.2404819052274996
3.0909611059135726,2.2404819052274996
3.0909611059135726,2.2404819052274996
3.0909611059135726,2.2404819052274996
3.5182127656102535,2.1998037724924617
3.5432890162861534,2.1998037724924617
3.5432890162861534,2.1998037724924617
2.7943879112757504,2.2404819052274996
2.2181580012188755,2.2569951422393384
2.2181580012188755,2.2569951422393384
2.06420865550006,2.313786337852334
2.06420865550006,2.313786337852334
2.06420865550006,2.313786337852334
2.06420865550006,2.313786337852334
2.06420865550006,2.1998037724924617
2.06420865550006,2.0456963532017265
2.06420865550006,2.0456963532017265
2.06420865550006,2.0456963532017265
2.06420865550006,2.0456963532017265
2.029863159337046,2.1476838709933017
2.06420865550006,2.2188369613431473
1.8348974836020466,2.2188369613431473
1.7648523652711772,2.2188369613431473
1.7137179003912584,2.2188369613431473
1.522468652454113,2.2188369613431473
1.4687744093806017,2.4723872074195183
1.4687744093806017,2.6444015250727446
1.4687744093806017,3.316464189786505
1.4687744093806017,3.0757586194132025
1.4687744093806017,3.0757586194132025
1.4687744093806017,3.2396912662123976
1.522468652454113,3.103041057309418
1.3119445608666522,2.907086564445167
1.3119445608666522,2.9063195927500156
1.3119445608666522,2.9063195927500156
1.3119445608666522,2.9063195927500156
1.208276380976305,2.9063195927500156
0.8440063670875964,2.8623139755143217
0.8440063670875964,2.6828357138730548
0.8440063670875964,2.624856286399251
0.8440063670875964,2.769518271792781
0.8440063670875964,2.769518271792781
0.8191821926682774,2.769518271792781
0.7787753994137193,2.769518271792781
0.7787753994137193,2.769518271792781
0.7787753994137193,2.7369676424468894
0.7787753994137193,2.7104422544767672
0.7787753994137193,2.7104422544767672
0.7787753994137193,2.7104422544767672
0.7643822914749123,2.769518271792781
0.6755258048862357,2.911745330478819
0.6691775417608518,2.911745330478819
0.6643386381426905,2.911745330478819
0.6643386381426905,2.911745330478819
0.6643386381426905,2.911745330478819
0.6643386381426905,2.9793675647557314
0.6643386381426905,2.823515550546338
0.6643386381426905,2.7997190675462065
0.6643386381426905,2.7207174493111297
0.6755258048862357,2.7207174493111297
0.694170519442357,2.7207174493111297
0.694170519442357,2.7207174493111297
0.694170519442357,2.7207174493111297
0.694170519442357,2.7207174493111297
0.7652720340121159,2.7207174493111297
0.7652720340121159,2.7207174493111297
0.7652720340121159,2.7207174493111297
0.7652720340121159,2.8094592047839497
0.7652720340121159,3.0371331563051926
0.7652720340121159,3.0371331563052424
0.7652720340121159,3.0371331563052424
0.7652720340121159,3.0371331563052424
0.7652720340121159,3.0371331563052424
0.8792742015970427,3.0932201891325213
0.8844427210452652,3.166952672629308
0.9945008280327425,3.0954711436348896
1.1545765189183534,3.056085792934535
1.1545765189183534,3.0457879923229076
1.1025580854808477,3.1159226397677573
1.0604680459065585,3.1159226397677573
0.9480128690352333,3.1159226397677573
0.9480128690352333,3.056085792934535
0.9480128690352333,3.056085792934535
0.8915693175909986,3.056085792934535
0.7531952103127681,3.056085792934535
0.7380512542388057,3.056085792934535
0.7380512542388057,3.1159226397677573
0.4964224875828603,3.3607413606542704
0.4964224875828603,3.46325984934747
0.4964224875828603,3.662388702809362
0.4964224875828603,3.662388702809362
0.4964224875828603,3.8482196210351276
0.4964224875828603,4.135276846620855
0.4964224875828603,4.135276846620855
0.4964224875828603,4.15998891186516
0.7237767981787808,4.136549754842494
0.9143984115338947,4.135276846620855
1.0673117024315448,4.118837438381417
1.3296493545933374,4.118837438381417
1.6473704742712254,3.907722286599413
1.9258839576394793,3.613200654523029
1.9819747239689798,3.4251001944621327
1.9881727994987646,2.020695985768197
2.1386294486850224,1.9131799883080858
2.4299448594738906,1.9131799883080858
3.0216920259223796,1.9131799883080858
3.2340111082071594,1.9131799883080858
3.2340111082071594,1.9131799883080858
3.057120028076775,1.9131799883080858
3.189440096222763,1.9131799883080858
3.189440096222763,1.9131799883080858
3.189440096222763,1.9131799883080858
3.189440096222763,2.1978979955824176
3.189440096222763,2.268910772765467
3.189440096222763,2.268910772765467
3.189440096222763,1.9839388201999888
3.189440096222763,1.9401746991698807
3.189440096222763,1.4015779101174046
3.4730601032653494,1.3769092185342386
3.586550176342847,1.3769092185342386
3.586550176342847,1.3769092185342386
3.4730601032653494,1.3769092185342386
3.4730601032653494,1.3769092185342386
3.4730601032653494,1.3769092185342386
3.3632068706813385,1.3769092185342386
3.2189964882539472,1.3769092185342386
3.2189964882539472,1.4015779101174046
3.0772004555449297,1.4515244879349902
3.0772004555449297,1.6127140689922799
3.0772004555449297,1.8304437521618544
3.0772004555449297,1.9124012645912167
3.185553819136442,2.024843806269478
3.293553493295253,2.033500963867714
3.004861902633639,2.291798599930049
2.8671894114264704,2.2939522616456003
2.8671894114264704,2.5056378965896076
2.8006250287960546,2.5056378965896076
2.657916374213075,2.51315844144198
2.6425420316481296,2.51315844144198
2.5951368087826414,2.51315844144198
2.5951368087826414,2.605896561079656
2.5951368087826414,3.059718590164046
2.5951368087826414,3.060205074404202
2.5951368087826414,3.2048586646390698
2.5951368087826414,3.151167165319047
2.6044652171585643,2.9428052328376144
2.6044652171585643,2.8620703551461957
2.6044652171585643,2.73401513462582
2.660909083654328,2.422904642302433
2.7511993672998325,2.217829579094734
2.923137885148674,1.9595003616314695
2.826262212486634,1.9595003616314695
2.826262212486634,1.9595003616314695
2.7489190509587442,1.9595003616314695
2.7489190509587442,1.9595003616314695
2.555903690651751,1.9595003616314695
2.421196575368786,1.9595003616314695
2.1931776240866374,1.9595003616314695
2.1931776240866374,2.357986970357691
2.1931776240866374,2.862917991821029
2.1931776240866374,2.862917991821029
2.1931776240866374,2.9169792113863826
2.1931776240866374,2.750700379388488
2.1931776240866374,2.750700379388488
2.1931776240866374,2.750700379388488
2.4756301333403252,2.750700379388488
2.4984673640073383,2.750700379388488
2.5227629460231915,2.658883453608135
2.566324809586001,2.658883453608135
2.566324809586001,2.658883453608135
2.566324809586001,2.658883453608135
2.566324809586001,2.750700379388488
2.599560306473749,2.6166146390301384
2.6192989070410078,2.6166146390301384
2.829477703786359,2.6166146390301384
2.7272474207787067,2.6166146390301384
2.7272474207787067,2.6166146390301384
2.7889467103607197,2.6166146390301384
2.7961330380794704,2.63365326903292
3.0713279302584624,2.643501614919291
3.2142291950741315,2.643501614919291
3.2142291950741315,2.643501614919291
3.0713279302584624,2.5714119373396063
2.7188074697095734,2.3632194407239537
2.7188074697095734,2.3632194407239537
2.7188074697095734,2.2896156885993366
2.990121555691543,2.0443085275420834
2.990121555691543,1.855295695641226
2.990121555691543,1.604650483784352
2.990121555691543,1.5641864054255028
2.990121555691543,1.4220409878396238
2.990121555691543,1.3554889861748332
2.990121555691543,1.3554889861748332
2.828321118531548,1.3554889861748332
2.828321118531548,1.3216325213747362
2.722771389941818,1.3216325213747362
2.722771389941818,1.3216325213747362
2.722771389941818,1.3216325213747362
2.5617887181350842,1.3216325213747362
2.2044121671939387,1.3216325213747362
2.1243955771641594,1.3554889861748332
2.047109938850649,1.455306698808441
1.8809728401853287,1.518678781930108
1.8809728401853287,1.518678781930108
1.8809728401853287,1.8631915727809332
1.8809728401853287,2.087809189761433
1.8809728401853287,1.9045670576031897
1.8809728401853287,1.9045670576031897
1.8809728401853287,1.8388298797370282
1.8809728401853287,1.8388298797370282
1.8809728401853287,1.8388298797370282
1.8512761405477836,1.8388298797370282
1.8287423935275997,1.8388298797370282
1.5199411622171255,1.8388298797370282
1.5199411622171255,1.8388298797370282
1.5199411622171255,1.8388298797370282
1.5199411622171255,1.7737584669872497
1.5199411622171255,1.7737584669872497
1.5199411622171255,1.7492282868849565
1.5199411622171255,1.675988373981322
1.5199411622171255,1.369254205336934
1.5199411622171255,1.369254205336934
1.6721746219052234,1.369254205336934
1.8617043058225788,1.369254205336934
2.272486843816825,1.369254205336934
2.4629966508856374,1.369254205336934
2.7325796250161516,1.369254205336934
2.7325796250161516,1.369254205336934
3.0356038706122432,1.5894818030011477
3.0356038706122432,1.608957185756458
3.053199824324433,1.608957185756458
3.1564789380965914,1.6762541904203365
3.179947485454584,1.6762541904203365
3.179947485454584,1.6762541904203365
3.179947485454584,1.6762541904203365
3.03621463198092,1.7463106681868064
2.967915734865881,1.8125003026393347
2.7682520592347264,1.8593061151184551
2.7682520592347264,1.8593061151184551
2.7682520592347264,1.9653776768091968
2.7682520592347264,1.981489129484147
2.7682520592347264,2.067318834109722
2.7682520592347264,2.0826086061278017
2.7682520592347264,2.1518951169380136
2.7682520592347264,2.1518951169380136
2.7682520592347264,2.1518951169380136
3.010853553558762,2.1518951169380136
3.010853553558762,2.262287077907466
3.0851249788640005,2.2810960619329164
3.313280702665005,2.1518951169380136
3.3868834900081906,1.8879119659524115
3.4169567806018377,1.8710536529757589
3.4864019205529124,1.8710536529757589
3.384562596731349,1.8710536529757589
2.966998835070619,1.8710536529757589
2.966998835070619,1.8710536529757589
2.966998835070619,1.8710536529757589
2.966998835070619,1.8710536529757589
2.966998835070619,1.8710536529757589
2.966998835070619,1.8710536529757589
2.966998835070619,1.943732823594476
2.966998835070619,2.2081810080725126
2.966998835070619,2.0741563965525445
2.966998835070619,2.0741563965525445
2.993135676042093,1.9686731789543737
3.3306852330815198,1.9686731789543737
3.339486356141679,1.9686731789543737
3.339486356141679,1.9686731789543737
3.5710646613059303,1.9686731789543737
3.624506944691984,1.9686731789543737
3.624506944691984,1.9686731789543737
2.8316415870149725,1.9686731789543737
2.666709610354248,1.9686731789543737
2.564617407886081,2.091670043848744
2.564617407886081,2.2642751921087014
2.564617407886081,2.370662425434026
2.10861031062587,2.370662425434026
2.10861031062587,2.471370962984314
2.10861031062587,2.370662425434026
2.10861031062587,2.3355341952648505
2.10861031062587,2.2642751921087014
2.10861031062587,2.1165253698249256
2.10861031062587,2.0843821943566643
2.4267081890840836,2.022365344860813
2.770792549470872,2.022365344860813
2.953129552890393,1.938117117283165
2.953129552890393,1.8595987730975863
3.201444368067974,1.8178023019640606
3.3123282167494725,1.8178023019640606
2.9928263276260734,1.8178023019640606
2.524398164658418,1.8178023019640606
2.524398164658418,1.8178023019640606
2.524398164658418,1.8178023019640606
2.524398164658418,1.715758054905437
2.6731202857557035,1.682994451385932
2.6731202857557035,1.715758054905437
2.6731202857557035,1.8178023019640606
2.6731202857557035,1.8178023019640606
2.6731202857557035,1.8616580997636267
2.6731202857557035,1.8616580997636267
2.3680326160156,1.8616580997636267
2.330481260996924,1.8926127456252868
1.9467160016939147,1.8926127456252868
1.5966396462374686,1.8926127456252868
1.5966396462374686,1.9580663029074694
1.5966396462374686,1.9989458255662746
1.5966396462374686,2.0946372010455754
1.5966396462374686,2.0946372010455754
1.5966396462374686,2.0946372010455754
1.5966396462374686,2.0478386033278264
1.5966396462374686,1.9829668681896568
1.5966396462374686,1.9754003383156533
1.6986365732390445,1.9754003383156533
2.1438470233161206,1.8170878783001856
2.3641491881042516,1.7217986109438699
2.839590595603154,1.7217986109438699
2.839590595603154,1.7217986109438699
2.951773189031109,1.7217986109438699
2.9534500566663606,1.7217986109438699
2.973393982222967,1.7614801295592757
3.2474244958348977,1.8170878783001856
3.2474244958348977,1.956759423669773
3.1805084279972418,1.956759423669773
3.2474244958348977,1.956759423669773
3.2474244958348977,2.039932166580915
3.2474244958348977,2.1381626560114704
3.1401650168799704,2.1660626465201838
3.0538947317256007,2.2435118137899783
2.9354609737513475,2.506936333931606
2.3935138926182327,2.6718810929706565
1.8545323686530926,2.7915182010593225
1.7932851012817472,2.7915182010593225
1.6027236133979594,2.7915182010593225
1.2985094179930095,2.7915182010593225
1.2985094179930095,3.0089663288984583
1.2985094179930095,3.3829183835924153
1.033921587785518,3.6358444636414107
1.033921587785518,3.6358444636414107
1.033921587785518,3.6358444636414107
1.033921587785518,3.6219591665029123
1.033921587785518,3.4420585152679815
1.033921587785518,3.3842847482258764
1.4092590078747216,3.2476018165318736
1.508424906209935,3.107540552931191
1.3316075608025193,2.908699814102991
1.3316075608025193,2.906745181507347
1.3316075608025193,2.906745181507347
1.3316075608025193,2.906745181507347
1.151796565120929,2.906745181507347
0.8030684311649634,2.8849721212908355
0.8030684311649634,2.821237886485894
0.8030684311649634,2.821237886485894
0.6712093058632316,2.906745181507347
0.6407027588809088,2.906745181507347
0.6174039711096723,2.906745181507347
0.5965218083582616,2.975797511210582
0.5965218083582616,2.975797511210582
0.5965218083582616,2.836606419473132
0.5395451587643858,2.836606419473132
0.5403537222033001,2.836606419473132
0.5395451587643858,2.9478746809857994
0.5363322072121998,2.9478746809857994
0.5363322072121998,2.9478746809857994
0.5330646690956956,2.91077590038093
0.5330646690956956,2.91077590038093
0.5330646690956956,2.91077590038093
0.5363322072121998,2.91077590038093
0.5363322072121998,2.91077590038093
0.5363322072121998,2.8642276698622693
0.5804097095655593,2.7596539594884337
0.5804097095655593,2.755765510378427
0.6509916549913374,2.755765510378427
0.7398484283917914,2.755765510378427
0.7398484283917914,2.755765510378427
0.7398484283917914,2.7596539594884337
0.660934927426596,2.7596539594884337
0.4959456669992864,2.7596539594884337
0.29970909641407034,2.7596539594884337
0.29970909641407034,2.7596539594884337
0.29970909641407034,2.9568089364613495
0.29970909641407034,3.0357038310141737
0.29970909641407034,3.103777497054223
0.2662727111855368,3.1136387903823874
0.26141489151226616,3.1136387903823874
0.24019142142038616,3.1136387903823874
0.2354830406031431,3.125420672206001
0.0,3.125420672206001
0.0,3.125420672206001
0.0,3.0998396724801496
0.0,3.0357038310141737
0.0,3.0998396724801256
0.0,3.125420672206001
0.0,3.182736724955588
0.0,3.202108445076852
0.0,3.210548973170878
0.0,3.2362331439095695
0.0,3.351768653190917
0.0,3.7452991400649185
0.0,4.006302649135222
0.0,4.008059878467145
0.0,4.085959848136932
0.38490980253898593,4.194135135868662
0.4422211550194289,4.146232459161828
0.6141103240264238,4.126391220432636
0.7755188875436082,4.126391220432636
0.8819952016535699,4.146232459161828
0.9511201849052398,4.146232459161828
1.0980531320019307,4.146232459161828
1.107819353740672,4.118812416912897
1.1093547058044388,4.076428921293935
1.103901316174072,4.076428921293935
1.103901316174072,4.076428921293935
1.0980531320019307,4.076428921293935
0.9680237342433202,4.076428921293935
0.8071973048974828,4.04292779561374
0.6860307215835564,4.04292779561374
0.6860307215835564,4.04292779561374
0.6860307215835564,4.076428921293935
0.6860307215835564,4.076428921293935
0.6860307215835564,4.076428921293935
0.6860307215835564,4.04292779561374
0.8448624734877287,4.04292779561374
1.051501293102362,4.04292779561374
1.1257015009715188,3.9810250461659042
1.248011311526432,3.8994228514905296
1.4491661575784827,3.4267618380648206
1.5805467102973871,2.8499268274724514
1.6845335471495373,2.8499268274724514
1.7285441984672543,2.8499268274724514
1.7285441984672543,2.8499268274724514
1.7285441984672543,2.8499268274724514
1.7285441984672543,2.8499268274724514
1.7285441984672543,2.8499268274724514
1.7285441984672543,2.8499268274724514
1.7285441984672543,2.8499268274724514
1.7285441984672543,3.212784485194033
1.7285441984672543,3.3989096255786975
1.7285441984672543,3.407103350008738
1.8908887068070421,3.407103350008738
1.7580085350619123,3.407103350008738
1.7580085350619123,3.407103350008738
1.8908887068070421,3.407103350008738
1.9533176894788824,3.3989096255786975
1.9533176894788824,3.3078500111357076
1.9533176894788824,3.3051680893169
1.9423560983840857,3.3051680893169
1.8976956309709454,3.3051680893169
1.7580085350619123,3.3051680893169
1.7438059532304941,3.3078500111357076
1.6203102815876436,3.3078500111357076
1.5783210089436077,3.3078500111357076
1.5783210089436077,3.3078500111357076
1.5783210089436077,3.3078500111357076
1.5783210089436077,3.6423556244293347
1.5783210089436077,3.6423556244293347
1.5783210089436077,3.651297373726631
1.5783210089436077,3.6423556244293347
1.6475512570104134,3.6423556244293347
1.8636636492778749,3.6423556244293347
1.864979324622036,3.6423556244293347
1.8779377548424225,3.5954294313610746
1.9003311075222762,3.5169887942953832
1.90263889665063,3.504711988092939
1.8779377548424225,3.504711988092939
1.8636636492778749,3.504711988092939
1.8779377548424225,3.504711988092939
1.9081450961890896,3.504711988092939
1.9229792855636385,3.4215911130131555
1.9229792855636385,3.3055389436881275
1.9229792855636385,3.1344278845239364
1.9229792855636385,3.1344278845239364
1.9229792855636385,3.1344278845239364
1.9229792855636385,3.1433776408394594
1.9081450961890896,3.148750915514911
1.977203327997225,3.148750915514911
2.079136110207468,3.148750915514911
2.0950058166296484,3.148750915514911
2.0950058166296484,3.148750915514911
2.0950058166296484,3.320513053992359
2.0950058166296484,3.320513053992359
2.0950058166296484,3.411643098425401
2.1615129455371083,3.3719766012877765
2.1615129455371083,3.1165818555804656
2.202729809671922,3.1165818555804656
2.2868780910791493,2.4023043132303843
2.3147550138037576,2.4023043132303843
2.621562108867146,2.34384930942501
2.621562108867146,2.236067977499909
2.5757098003535988,2.186722599756543
2.5888014178046843,2.1225893748220117
2.5888014178046843,1.9814891294841408
2.5888014178046843,1.9814891294841408
2.5888014178046843,1.9814891294841408
2.5757098003535988,1.9814891294841408
2.445673365128165,1.9814891294841408
2.13453815845331,1.9814891294841408
1.8515186165907842,1.9814891294841408
1.8515186165907842,1.9814891294841408
1.7896141731438184,1.9814891294841408
1.6659307412938764,2.167464625375326
1.662498326934151,2.1971139825636197
1.662498326934151,2.2688908315216234
1.6597105128082597,2.2688908315216234
1.6468761862744006,2.2688908315216234
1.5211615607812963,2.2688908315216234
1.2921137473831723,2.4312000923388277
1.2082875602154322,2.4676260581276166
0.989073238284814,2.4676260581276166
0.9209710380694388,2.4676260581276166
0.9209710380694388,2.4676260581276166
0.9209710380694388,2.67624500301478
0.8830081797139817,2.7928845158069775
0.8830081797139817,2.791657180233214
0.8830081797139817,2.7928845158069775
0.8830081797139817,2.7928845158069775
0.8830081797139817,2.7928845158069775
0.9209710380694388,2.7928845158069775
0.9595647668070044,2.7928845158069775
0.9942223774586588,2.7928845158069775
1.0068435382434093,2.431356049093896
1.018538357835621,2.431356049093896
1.1195514352271223,2.431356049093896
1.2176155633775436,2.431356049093896
1.2554937360801257,2.431356049093896
1.3605689594423576,2.400387505557465
1.4621694112471146,2.331337037711986
1.5158145888302317,2.246522953181413
1.5816146228979981,2.246522953181413
1.6244015133579501,2.246522953181413
1.6662657930229623,2.246522953181413
1.702750841026335,2.246522953181413
1.8079244963255914,2.215947390404088
1.8079244963255914,2.215947390404088
1.8079244963255914,2.215947390404088
1.9237104444753423,2.215947390404088
1.9414694162382113,2.246522953181413
2.0463556379654104,2.246522953181413
2.0624103056628544,2.301572743784165
2.0624103056628544,2.301572743784165
2.0624103056628544,2.301572743784165
2.244232222093648,2.4281440722239602
2.2686015966997832,2.4524126843781344
2.283326842536806,2.409486594911533
2.283326842536806,2.3118934230633768
2.283326842536806,2.0495132187115184
2.283326842536806,2.0495132187115184
2.66482708213378,2.0495132187115184
2.66482708213378,2.0495132187115184
2.7504783015988017,1.997043761763692
2.924449819655798,1.9617703581854402
2.9244498196557984,1.9617703581854402
3.162753284615323,1.9617703581854402
3.162753284615323,1.9617703581854402
2.8133381583510824,1.9617703581854402
2.65689732396026,1.997043761763692
2.65689732396026,2.170642636292802
2.65689732396026,2.170642636292802
2.65689732396026,2.2003161692914235
2.633463734507319,2.2594882701979557
2.633463734507319,2.4395601065356147
2.633463734507319,2.4692069293132155
2.633463734507319,2.5482731527502236
2.633463734507319,2.2594882701979557
2.633463734507319,1.7629533946349278
2.828195844862903,1.6721631705967541
3.023137585385894,1.6721631705967541
3.3294366454683955,1.6721631705967541
3.3294366454683955,1.6721631705967541
3.3294366454683955,1.6721631705967541
3.491472683124606,1.6721631705967541
3.5761878871461663,1.6721631705967541
2.8887405053658886,1.6721631705967541
2.769695795980107,1.8342475354652716
2.769695795980107,1.8859851681313442
2.769695795980107,1.9237702729415214
2.769695795980107,1.9382412276767695
2.769695795980107,1.9234118294347269
2.769695795980107,1.8859851681313442
2.769695795980107,1.5819570737253075
2.769695795980107,1.3649519212227554
2.769695795980107,1.3649519212227554
2.769695795980107,1.3649519212227554
3.085527542575145,1.3649519212227554
3.1565299320594518,1.3649519212227554
3.451614668273752,1.3649519212227554
3.6152935403821655,1.3649519212227554
3.632632725018045,1.3649519212227554
3.632632725018045,1.4735521033556342
3.49030598822545,1.5370682314271509
3.2365945649797627,1.852313822789974
2.824766812913474,1.859598773097612
2.824766812913474,1.983068525946437
2.824766812913474,1.983068525946437
2.824766812913474,1.983068525946437
2.824766812913474,1.983068525946437
2.699364528632294,2.102827635634542
2.699364528632294,2.102827635634542
2.699364528632294,2.0137826357174724
2.699364528632294,1.8388298797370288
2.699364528632294,1.8388298797370288
2.7451079097501765,1.8330635807549207
3.1239888926046806,1.6593278696814322
2.994395591557967,1.6428926787820515
2.9822607765474074,1.4866868007569871
2.9822607765474074,1.4866868007569871
2.9822607765474074,1.4866868007569871
3.131048827651614,1.4866868007569871
2.9822607765474074,1.6277123994384946
2.9647831437340533,1.6277123994384946
2.9647831437340533,1.6277123994384946
2.9647831437340533,1.6277123994384946
2.9647831437340533,1.6428926787820515
2.9647831437340533,1.9839388202000066
2.9647831437340533,2.020695985768226
2.997430109771499,2.233881113196692
2.997430109771499,2.3830686400967465
2.997430109771499,2.3830686400967465
2.997430109771499,2.4083147726857814
2.9989917357294504,2.3938649330478423
3.1657901709117473,2.4083147726857814
3.255463371515601,2.5169767931325158
3.255463371515601,2.5169767931325158
3.255463371515601,2.3938649330478423
3.255463371515601,2.3938649330478423
3.255463371515601,2.289981623789637
3.10311550341325,2.289981623789637
3.10311550341325,2.289981623789637
3.10311550341325,2.289981623789637
3.10311550341325,2.3938649330478423
2.988860592166564,2.4082975972760607
3.0589500981732383,2.4082975972760607
2.564129743814433,2.4082975972760607
2.111389686658296,2.4082975972760607
1.7894581998724362,2.5495709789435885
1.5106319884117814,2.5914815679256784
1.3749635722423277,2.7589329239395943
1.3749635722423277,2.829444443016148
1.3749635722423277,3.1055945434798202
1.3749635722423277,3.1877878592607525
1.3749635722423277,3.1877878592607525
1.3749635722423277,3.1877878592607525
1.3749635722423277,3.0472791852726537
1.4185238706944354,2.978779904481144
1.4185238706944354,2.8383956172425107
1.4185238706944354,2.8383956172425107
1.4185238706944354,2.823529130677175
1.4185238706944354,2.823529130677175
1.4185238706944354,2.823529130677175
1.261473426902747,2.823529130677175
0.9311747681087821,2.823529130677175
0.8244896297416902,2.8383956172425107
0.6478186086152524,2.8802985069510614
0.38911598641503276,2.8802985069510614
0.3853669825614598,2.8802985069510614
0.3853669825614598,2.964289984272765
0.3853669825614598,2.937218042361701
0.3853669825614598,2.937218042361701
0.3853669825614598,2.937218042361701
0.3853669825614598,2.937218042361701
0.3853669825614598,2.937218042361701
0.3853669825614598,2.937218042361701
0.38911598641503276,2.937218042361701
0.6368978577286575,2.8740234607049353
0.7656653909911879,2.8148992485181887
0.7677381602796021,2.696793231183173
0.8183459957435699,2.696793231183173
0.8569296985396341,2.696793231183173
0.9021618835383681,2.8082221166478063
0.9095028305546556,2.8082221166478063
0.9097654416923832,2.696793231183173
0.9097654416923832,2.696793231183173
0.9097654416923832,2.696793231183173
0.9095028305546556,2.696793231183173
0.8144014849780341,2.8082221166478063
0.601271744699469,2.855784337593311
0.5620318044514564,2.943579755585072
0.5015005873438692,2.855784337593311
0.48993559148285987,2.855784337593311
0.4767013071284424,2.855784337593311
0.4386007680227828,2.943579755585072
0.4178910037440812,3.022988399118385
0.3691309069217526,3.0234179191480273
0.33816099548795103,3.0234179191480273
0.33816099548795103,3.0234179191480273
0.33816099548795103,2.889618721190084
0.33816099548795103,2.889618721190084
0.33816099548795103,3.022988399118385
0.33816099548795103,3.0234179191480273
0.33816099548795103,3.0234179191480273
0.3502420546867512,3.0234179191480273
0.3943245861215352,3.0234179191480273
0.3943245861215352,3.091741247677765
0.39648241021570274,3.3023210253960964
0.43166533259059114,3.619314948591047
0.43226902407674417,3.644948149171445
0.43226902407674417,3.979318893534657
0.43226902407674417,4.04828113272051
0.43226902407674417,4.190212727617099
0.5297509997177545,4.190212727617099
0.7709614517970116,4.190548512249992
0.9630032136595046,4.190548512249992
1.0298807816575204,4.190548512249992
1.0407770895358466,4.118634216001129
1.0621363133811639,4.118634216001129
1.0621363133811639,4.118634216001129
1.0621363133811639,4.077590296297146
1.0619943892450252,4.077590296297146
1.0612004507235826,3.9858698131122297
1.0612004507235826,3.9858698131122297
1.0024904747872185,3.9858698131122297
0.984044330484046,3.9858698131122297
0.9767636994575384,3.9858698131122297
0.9054924465808819,4.00250094437106
0.9054924465808819,4.00250094437106
0.9054924465808819,3.9858698131122297
0.9054924465808819,3.9858698131122297
0.9054924465808819,3.9858698131122297
0.9054924465808819,3.9813700758563986
0.9054924465808819,3.954970096458738
1.0692917240767101,3.805270767929531
1.0702832718712822,3.065928885833101
1.5161362272702874,2.6020617616437036
2.008048655434288,2.6020617616437036
2.2283504704439014,2.6020617616437036
2.2789742618849145,2.6020617616437036
2.317416076889778,2.6020617616437036
2.0165901350937947,2.6020617616437036
2.0165901350937947,2.6020617616437036
1.9635702591522255,2.6020617616437036
1.7208211781803622,2.6020617616437036
1.713430546202842,2.8316135058634764
1.5584258376920965,2.9284707093537645
1.5409738167065765,3.1278900316343914
1.5409738167065765,3.3695944365259156
1.5409738167065765,3.4365585962561833
1.5409738167065765,3.579407156754856
1.5409738167065765,3.579407156754856
1.5409738167065765,3.579407156754856
1.713430546202842,3.579407156754856
1.7702282122862567,3.579407156754856
2.1132089913501746,3.579407156754856
2.1132089913501746,3.579407156754856
2.1132089913501746,3.4753975577043756
2.1259645451056954,3.47475589169797
2.076944377606753,3.47475589169797
1.9567134316971655,3.47475589169797
1.8068412830147491,3.47475589169797
1.6843229525300139,3.4753975577043756
1.6650852299630843,3.5993820280307114
1.6081815255488618,3.5993820280307114
1.4074284494616431,3.5993820280307114
1.4074284494616431,3.5993820280307114
1.4074284494616431,3.5993820280307114
1.4074284494616431,3.723843880570956
1.4074284494616431,3.5993820280307114
1.4074284494616431,3.723843880570956
1.4074284494616431,3.4081405130410323
1.446437642953209,3.4081405130410323
1.5965650038803272,3.4081405130410323
1.8533797196201145,3.4081405130410323
1.9122003940031804,3.4081405130410323
1.931993644800632,3.3028800846586797
1.949882234405744,3.2707539854718752
1.9122003940031804,3.2707539854718752
1.8631130587349338,3.2707539854718752
1.7959944412935727,3.2707539854718752
1.7425166191307933,3.3028800846586797
1.7425166191307933,3.38240304873807
1.6584749952666837,3.30685429858018
1.6584749952666837,3.30685429858018
1.6584749952666837,3.30685429858018
1.6584749952666837,3.38240304873807
1.6584749952666837,3.341347214711811
1.6584749952666837,3.4229484739536535
1.7171192238284407,3.3114948760367993
1.7820327032937724,3.3114948760367993
2.127978158432208,3.3114948760367993
2.1336254156171273,3.274875563265023
2.159562034000239,3.1793026556873696
2.289960673588642,3.1793026556873696
2.5207769440366774,2.9331093044387933
2.5830400436616845,2.9117566495585856
2.6588973800894613,2.6465739053254014
2.9721319258650394,2.5470737986583467
2.9885705236212976,2.176256828473375
3.1112921548374812,2.176256828473375
3.060530498997222,2.176256828473375
3.0081595619404333,2.176256828473375
2.6632564992341936,2.0831979639126845
2.2903576551565332,2.023559889962281
1.971675853376223,2.023559889962281
1.7777046395514506,2.023559889962281
1.6427524391314026,2.023559889962281
1.6307328243363608,2.176256828473375
1.5086692426804522,2.177321490430877
1.2402444843714073,2.1904674044999264
1.2402444843714073,2.3844240849322436
1.2402444843714073,2.3844240849322436
1.2402444843714073,2.3844240849322436
1.2351112704954306,2.493803146358739
1.2351112704954306,2.5135736477267874
1.2351112704954306,2.5135736477267874
1.2351112704954306,2.5135736477267874
1.1972121197558698,2.5135736477267874
1.1468940718934242,2.5135736477267874
1.1468940718934242,2.554292298622384
1.1476852623881566,2.554292298622384
1.1476852623881566,2.5135736477267874
1.1476852623881566,2.5135736477267874
1.1476852623881566,2.5135736477267874
1.1476852623881566,2.554292298622384
1.0691833255959058,2.5696541351959508
1.0486984718213337,2.5991321957605273
1.0486984718213337,2.590718754936696
1.0040191830980978,2.590718754936696
1.0486984718213337,2.590718754936696
1.0786644996139976,2.590718754936696
1.0040191830980978,2.6705011199972524
1.0040191830980978,2.6705011199972524
1.0040191830980978,2.590718754936696
1.0040191830980978,2.590718754936696
1.0040191830980978,2.590718754936696
1.0727850845292042,2.590718754936696
1.0786644996139976,2.5179666157075076
1.0817138233621004,2.439474419566241
1.1096057390075122,2.351768262594272
1.1096057390075122,2.2770869680904147
1.1096057390075122,2.2770869680904147
1.3079560142095175,2.2770869680904147
1.6216723925334697,2.0740905666639295
1.6216723925334697,2.0740905666639295
1.920125021295731,2.0720392436655284
2.0396250720957534,2.059228645287751
2.129189638626597,2.059228645287751
2.2295668657786583,2.059228645287751
2.2295668657786583,2.059228645287751
2.13302242222153,2.0740905666639295
2.0396250720957534,2.059228645287751
2.0396250720957534,2.059228645287751
2.0396250720957534,2.059228645287751
2.0396250720957534,1.8809886911264695
2.13302242222153,1.7042895401972689
2.13302242222153,1.7042895401972689
2.13302242222153,1.610590842975501
2.13302242222153,1.596623400591174
2.13302242222153,1.514205733958648
2.4395632130456586,1.4780717086447217
2.4395632130456586,1.4540462888250911
2.719590490946974,1.4051748401679252
2.847031303119429,1.3144410310334818
2.866112837902428,1.2929396394053252
3.096378389701811,1.2929396394053252
3.2938436662160058,1.2929396394053252
3.2742212040745198,1.2929396394053252
3.2742212040745198,1.2929396394053252
3.2742212040745198,1.2929396394053252
3.2742212040745198,1.2929396394053252
3.2742212040745198,1.2929396394053252
3.2742212040745198,1.5244221571374692
3.0731349553064664,1.8445175882646536
3.0731349553064664,1.8730793638909164
3.0731349553064664,1.8730793638909164
3.0731349553064664,1.8730793638909164
3.0731349553064664,1.8730793638909164
3.0731349553064664,1.8730793638909164
3.0561402887774345,1.8730793638909164
2.9265649859755296,1.8730793638909164
2.653149825769808,1.764556297337366
2.653149825769808,1.764556297337366
2.653149825769808,1.764556297337366
2.653149825769808,1.764556297337366
2.5917506216317503,1.764556297337366
2.4710925136064374,1.8999353899387779
2.2994409604268413,1.8999353899387779
2.2820546450398966,2.055134982356719
2.2820546450398966,2.098349443774075
2.2820546450398966,2.143212141782479
2.2820546450398966,2.336266615972047
2.2820546450398966,2.30017868306033
2.2820546450398966,2.30017868306033
2.2820546450398966,2.2435145029262236
2.2820546450398966,2.0340494240855476
2.2820546450398966,1.9864459527763523
2.397949537199173,1.9462803258062862
2.4043212757406316,1.9230756589250588
2.4637309071408326,1.8964920631610653
2.4935506333076884,1.8787430927669755
2.5062108619068804,1.8787430927669755
2.5150596913595855,1.8787430927669755
2.5615457572241445,1.8787430927669755
2.5615457572241445,1.8787430927669755
2.5615457572241445,1.7296238650599127
2.5615457572241445,1.679814845195285
2.5615457572241445,1.5950104416399467
2.5615457572241445,1.5917911421138757
2.579133120935078,1.5917911421138757
2.857302383067374,1.5917911421138757
3.07120230597281,1.5917911421138757
3.263365379011518,1.5917911421138757
3.3018141203031157,1.5917911421138757
3.3160999668092748,1.5917911421138757
3.3160999668092748,1.5950104416399467
3.3160999668092748,1.6362486174486548
3.3160999668092748,1.6362486174486548
3.3160999668092748,1.6362486174486548
3.3160999668092748,1.6367744173288046
3.3665399893157684,1.6794355372347967
3.4311639756678467,1.6870076360424573
3.4311639756678467,1.6794355372347967
3.4311639756678467,1.5982216577961554
3.4311639756678467,1.482248143745715
3.6131892578791867,1.1552604600890182
3.647575935142447,1.1552604600890182
3.555332645028026,1.1552604600890182
3.4212826801996545,1.1552604600890182
3.4212826801996545,1.1552604600890182
3.339208761813753,1.1552604600890182
3.25523537968171,1.1552604600890182
2.8721087677228847,1.1552604600890182
2.2701605830063953,1.2118621462953933
1.881623773280456,1.3438772035053792
1.2351643788333833,1.8920821551557858
1.2351643788333833,2.0111923140320083
1.2351643788333833,2.5301764107448093
1.2351643788333833,2.934782631216695
1.1735351980572837,3.1267288429059263
1.1735351980572837,3.2399764379706606
1.1735351980572837,3.530887023896538
1.1735351980572837,3.481387657866272
1.1735351980572837,3.481387657866272
1.324401158605819,3.434893900654688
1.3567709035878466,3.1972205226031667
1.4127053017630882,3.0647056803252175
1.3121680924941959,2.884403196472525
1.3121680924941959,2.884403196472525
1.3121680924941959,2.884403196472525
1.3121680924941959,2.884403196472525
1.1576561559154868,2.884403196472525
0.8338668698967767,2.8049541968788985
0.806209313489828,2.6973614944898117
0.7803868809944803,2.7782485314395844
0.7488031663472218,2.919502697632984
0.7071263743382056,2.919502697632984
0.6627235371437175,2.919502697632984
0.5784672579995562,2.9361663758179737
0.5233208317934217,2.9406978786495412
0.5217030838523232,2.9406978786495412
0.43965666960786637,2.9406978786495412
0.43718280654036806,2.9406978786495412
0.3830122761727088,3.033160096286853
0.3830122761727088,3.033160096286853
0.3830122761727088,3.0212226200173995
0.3830122761727088,3.010191996338322
0.3830122761727088,3.010191996338322
0.3830122761727088,3.010191996338322
0.3830122761727088,3.010191996338322
0.3830122761727088,2.9951064111499908
0.5650168233842249,2.889684947008016
0.5783724406453599,2.823473829806438
0.6177318875663336,2.823473829806438
0.6403308398239336,2.823473829806438
0.6713165736194426,2.823473829806438
0.6909847588933214,2.823473829806438
0.6909847588933214,2.823473829806438
0.7569587663443145,2.823473829806438
0.7569587663443145,2.823473829806438
0.7569587663443145,2.823473829806438
0.7569587663443145,2.9123712740545344
0.5505903445587927,2.923561637889189
0.5314447919040215,2.923561637889189
0.5009620644368986,2.884257606762815
0.423176481232186,2.884257606762815
0.4160875723975052,2.884257606762815
0.40349850189496206,3.0232550457055174
0.33907293074224837,3.0624914114105946
0.33907293074224837,3.0624914114105946
0.33907293074224837,3.0624914114105946
0.33907293074224837,3.0624914114105946
0.33907293074224837,3.0624914114105946
0.33907293074224837,3.102455497084424
0.33907293074224837,3.1150789558838223
0.33907293074224837,3.1433847037641813
0.3531947582821566,3.1433847037641813
0.397501680369681,3.1433847037641813
0.3556707338607171,3.1433847037641813
0.3831884202453287,3.258423747170215
0.41264693162932015,3.4025568536377038
0.4337244310313471,3.635832241577602
0.444493975474298,3.7780313595791686
0.444493975474298,3.9347757859214307
0.444493975474298,4.03356538583119
0.444493975474298,4.125617259413965
0.444493975474298,4.24119354300324
0.4905426858901455,4.177522145629618
0.6338632921591181,4.170588969399628
0.7618267790785733,4.170588969399628
0.8993675104736565,4.125617259413965
0.9722757414062866,4.125617259413965
0.9722757414062866,4.125617259413965
0.9722757414062866,4.168944555208617
0.9722757414062866,4.168944555208617
0.9722757414062866,4.152657096796097
0.9722757414062866,3.9512797489149007
0.8933123937931939,3.9512797489149007
0.8865518910355484,3.9512797489149007
0.8501711613930771,4.05652087210503
0.7368928178138112,4.067472835330492
0.7368928178138112,4.067472835330492
0.7166723370555768,4.05652087210503
0.7004370940509141,4.05652087210503
0.7004370940509141,4.05652087210503
0.7004370940509141,4.067472835330492
0.7004370940509141,4.05652087210503
0.7004370940509141,4.133135771235531
0.7368928178138112,4.013717673889233
0.9462604786372785,3.953730213113225
1.1118003818982547,3.953730213113225
1.231505510171608,3.953730213113225
1.4516576151664293,3.879779791265282
1.6283444676044423,3.7843540603472214
1.6873039545352937,3.264299997936094
1.727587024299072,3.1370700283727166
1.9250376074335822,2.983082748563743
2.147068634543515,2.8494524512409707
2.3068998976249233,2.0658817191331176
2.5906112439525333,1.8616245047665012
2.632306880433333,1.5249808062851793
2.9252579130900838,1.246173184692568
3.086112664406854,1.246173184692568
3.196271010409528,1.246173184692568
3.1988329734891643,1.246173184692568
3.327320335953326,1.246173184692568
3.2470842599218663,1.246173184692568
2.8189918019508533,1.246173184692568
2.1511499836583154,1.246173184692568
1.544643546357194,1.536696867809149
1.194672116147977,1.5499308213180725
1.194672116147977,1.5914096101909943
1.194672116147977,1.6910906674534494
1.194672116147977,1.7815684647834586
1.194672116147977,2.0762247443244934
1.194672116147977,3.3947321256234435
1.194672116147977,3.3947321256234435
1.194672116147977,3.3947321256234435
1.231838422425134,3.136505542631971
1.490893908942272,3.136505542631971
1.4970897980970472,3.136505542631971
1.5807351295402676,3.136505542631971
1.705954414871393,3.136505542631971
1.8633111476601163,3.0627321810809294
1.8672725872882971,2.985125746248175
1.8672725872882971,2.985125746248175
1.8672725872882971,2.985125746248175
1.8672725872882971,3.049268327748172
1.8672725872882971,3.057469554998948
2.101015477651442,3.049268327748172
2.1100209156641228,3.049268327748172
2.1100209156641228,3.049268327748172
2.101015477651442,3.049268327748172
1.9761219445549867,3.049268327748172
1.8537702811728651,3.057469554998948
1.8047411902345918,3.0621468911218677
1.770066749967418,3.0621468911218677
1.7516343947722517,3.211602131763007
1.714018800125369,3.211602131763007
1.6980824610666647,3.618790692633576
1.6726515045262338,3.618790692633576
1.626240521337923,3.6388871876672795
1.4875061475592541,3.6388871876672795
1.3740854393747002,3.6388871876672795
1.3740854393747002,3.6388871876672795
1.3740854393747002,3.689160269732543
1.3740854393747002,3.618790692633576
1.3740854393747002,3.661296979188141
1.3740854393747002,3.470721476571957
1.3740854393747002,3.340225689313713
1.645703636612596,2.956678165652968
1.846732301526039,2.6141885733934274
2.106789062564439,2.6141885733934274
2.2116344092242075,2.6141885733934274
2.45713973388125,2.6141885733934274
2.2116344092242075,2.6141885733934274
2.2116344092242075,2.6141224490862345
2.266359693801537,2.5356440396309394
2.052449539940499,2.5356440396309394
2.052449539940499,2.5356440396309394
2.0517543511653504,2.5356440396309394
2.045824340300421,2.5356440396309394
1.866541334271292,2.706264346447348
1.8654219371375387,2.638459067901666
1.7646490475735594,2.555953052397569
1.4032012419429936,2.555953052397569
1.3667695393730364,2.555953052397569
1.1676922287716518,2.638459067901666
0.9811881701195443,2.706264346447348
0.9709719526458274,2.706264346447348
0.6874210510685569,2.706264346447348
0.6874210510685569,2.706264346447348
0.6874210510685569,2.706264346447348
0.6874210510685569,2.8382805404287033
0.6874210510685569,2.894264675500705
0.6874210510685569,2.894264675500705
0.6874210510685569,2.8382805404287033
0.6874210510685569,2.8382805404287033
0.6875630456878092,2.8382805404287033
0.6898825804647304,2.8382805404287033
0.6898825804647304,2.811590983943652
0.6895105241063807,2.8040467724023017
0.6895105241063807,2.7946266773904327
0.6749300657411075,2.7946266773904327
0.6749300657411075,2.7946266773904327
0.6749300657411075,2.7946266773904327
0.6749300657411075,2.7946266773904327
0.6749300657411075,2.7946266773904327
0.6827205246186221,2.7946266773904327
0.6827205246186221,2.7946266773904327
0.6827205246186221,2.7946266773904327
0.6935219728436995,2.798066298690708
0.7374147524736986,2.7390324479862396
0.7374147524736986,2.496483147919491
0.8108173210814551,2.496483147919491
0.8861835028733491,2.496483147919491
1.1522293040863638,2.4233360287333525
1.1558338347350914,2.2444063710445628
1.3436843587485827,2.1307529702221073
1.3969034963033624,1.7160594695776945
1.4484738369099515,1.6913858253908738
1.6395124779146564,1.6913858253908738
1.9799221959893427,1.6913858253908738
1.9799221959893427,1.6913858253908738
1.9799221959893427,1.6913858253908738
1.9392768712576547,1.6913858253908738
1.9392768712576547,1.6913858253908738
1.9392768712576547,1.6913858253908738
1.9392768712576547,1.6913858253908738
1.9392768712576547,1.8123728597208841
1.9392768712576547,1.8123728597208841
1.9392768712576547,1.8123728597208841
1.9392768712576547,1.712095507736845
1.9392768712576547,1.7087023129041634
2.1812295113815625,1.6657085568370589
2.1927560057603794,1.5763987135268924
2.5678619811110237,1.5763987135268924
3.022485454270643,1.5763987135268924
3.2813226482834996,1.5763987135268924
3.4353193951901684,1.5763987135268924
3.4353193951901684,1.5763987135268924
2.938362051150049,1.5763987135268924
2.8315666913429594,1.5763987135268924
2.8315666913429594,1.5763987135268924
2.8315666913429594,1.6273007921803633
2.8517548522406804,1.761480129559287
2.8517548522406804,1.7714414954046998
2.8517548522406804,1.790590390574994
2.8517548522406804,1.8011158676654322
2.8517548522406804,1.8011158676654322
2.8517548522406804,1.790590390574994
2.8517548522406804,1.790590390574994
3.1110509683891245,1.790590390574994
3.1110509683891245,1.790590390574994
2.9758059318417938,1.8011158676654322
2.676933335057013,1.8011158676654322
2.676933335057013,1.8623615474316035
2.676933335057013,1.8623615474316035
2.676933335057013,1.8011158676654322
2.676933335057013,1.6562873394837316
2.676933335057013,1.6127140689923494
2.676933335057013,1.6127140689923494
2.676933335057013,1.6127140689923494
2.676933335057013,1.6127140689923494
2.71394617669936,1.6127140689923494
2.766660319822501,1.6127140689923494
2.766660319822501,1.6127140689923494
2.71394617669936,1.6127140689923494
2.71394617669936,1.6127140689923494
2.767450424688646,1.7370879781238229
2.767450424688646,1.7370879781238229
2.767450424688646,1.7370879781238229
2.767450424688646,1.7370879781238229
2.767450424688646,1.6347531917412483
2.767450424688646,1.6347531917412483
2.767450424688646,1.6347531917412483
2.818204239418909,1.6347531917412483
2.818204239418909,1.6347531917412483
2.8873126771959976,1.5539770748432105
2.8273835480257548,1.545916926728035
2.8273835480257548,1.545916926728035
3.0343170996534283,1.545916926728035
3.037522435205076,1.7152428551149497
3.037522435205076,1.7744850453279288
2.8273835480257548,1.7744850453279288
2.8273835480257548,1.7744850453279288
2.8273835480257548,1.7744850453279288
2.8273835480257548,1.7744850453279288
2.674669062423002,1.7803945597328494
2.6664580779771807,1.7813334256475517
2.6664580779771807,2.077260194301213
2.6664580779771807,2.1194891560449403
2.6664580779771807,2.1194891560449403
2.6664580779771807,2.077260194301213
2.6664580779771807,2.077260194301213
3.177739254127272,2.1194891560449403
3.177739254127272,1.7968714748184618
3.177739254127272,1.747837750286423
3.177739254127272,1.692107989455986
3.1988024963928527,1.692107989455986
3.2861909529621856,1.692107989455986
3.2814318701700693,1.692107989455986
3.2814318701700693,1.692107989455986
3.2861909529621856,1.692107989455986
2.9244498196558752,1.692107989455986
2.9226265080730616,1.692107989455986
2.293973493055191,1.692107989455986
1.9917611234153514,1.7475800443484246
1.7738231677812393,1.7754459344988747
1.367194908330938,1.8898987268040661
1.274650753476437,2.3814928274661837
1.274650753476437,2.7522686167586476
1.274650753476437,3.0486523064023716
1.274650753476437,3.1595338158010864
1.274650753476437,3.1873832288768416
1.274650753476437,3.0823919938221787
1.274650753476437,3.26046749292906
1.239981138258327,3.115424483477561
1.2126361754119448,2.969186229257976
1.2126361754119448,2.969186229257976
1.2351098690869888,2.969186229257976
1.2351098690869888,2.9512174767489405
1.2126361754119448,2.8888709294511363
0.777245913840552,2.8888709294511363
0.7214160486829657,2.8888709294511363
0.674942195956326,2.921250212701382
0.5692553070166669,2.9863449053984135
0.5490530351720985,2.9863449053984135
0.5466656587945338,2.9863449053984135
0.5466656587945338,3.0326657679634565
0.5466656587945338,3.0326657679634565
0.5466656587945338,2.9863449053984135
0.5466656587945338,2.8842421889637238
0.5490530351720985,2.8735175587981487
0.5926843666593604,2.8199982521429527
0.5926843666593604,2.8199982521429527
0.5386037752106289,2.8199982521429527
0.5386037752106289,2.8199982521429527
0.5386037752106289,2.8199982521429527
0.562157728682879,2.8199982521429527
0.562157728682879,2.8199982521429527
0.562157728682879,2.8199982521429527
0.562157728682879,2.8199982521429527
0.562157728682879,2.905654173046379
0.562157728682879,2.905654173046379
0.562157728682879,2.8649835390203218
0.562157728682879,2.684577417282604
0.6103258330841116,2.684577417282604
0.6103258330841116,2.684577417282604
0.6103258330841116,2.684577417282604
0.6103258330841116,2.684577417282604
0.6103258330841116,2.684577417282604
0.37484805773374263,2.684577417282604
0.28839748286877104,2.684577417282604
0.2559074099720064,2.684577417282604
0.25106517132036255,2.9480410699538613
0.25106517132036255,3.106939240283918
0.25106517132036255,3.1139114443833003
0.23943109763282897,3.1305196517902245
0.23943109763282897,3.1305196517902245
0.23943109763282897,3.1305196517902245
0.23943109763282897,3.1305196517902245
0.23943109763282897,3.1305196517902245
0.23943109763282897,3.1450177579538043
0.25152655021167586,3.2321493655613627
0.2805897741705194,3.3195815266673647
0.4035499301914989,3.3195815266673647
0.3475263367712546,3.3202538745943833
0.3475263367712546,3.383684456234321
0.4035499301914989,3.415747001005787
0.43882982765911294,3.474751835604783
0.479746527990276,3.61554127057768
0.479746527990276,3.8529721615645345
0.479746527990276,4.06004445673214
0.479746527990276,4.06004445673214
0.479746527990276,4.146010327540034
0.48333653358192097,4.201664004478152
0.5890644469032968,4.172562344872693
0.7202253416060868,4.146010327540034
0.8881758062936153,4.146010327540034
0.9614728915316318,4.146010327540034
1.0332184474042436,4.109204694953807
1.047635691727665,4.109204694953807
1.0500869658102345,4.0634632459418825
1.0500869658102345,4.030402487467778
1.047635691727665,4.030402487467778
1.0332184474042436,4.030402487467778
0.9614728915316318,4.05211508217154
0.8984932858247648,4.05211508217154
0.7921106132250435,4.05211508217154
0.7350436313450233,4.05211508217154
0.7312906771517179,4.05211508217154
0.7312906771517179,4.05211508217154
0.7312906771517179,4.068956589711156
0.7312906771517179,4.062850111878827
0.7312906771517179,4.082944695765718
0.7350436313450233,4.019038250022359
1.055801190992343,3.9190241089457474
1.1121846301967635,3.9190241089457474
1.341932925527806,3.9190241089457474
1.560731084329809,3.806619499138527
1.7655504887246032,3.7674874089702612
1.9064251737709452,3.2596455191417695
1.989230824177277,3.2596455191417695
2.468470483219682,3.021035289264166
2.5000799839956582,3.021035289264166
2.5152672602276844,3.021035289264166
2.5152672602276844,2.9129642443531596
2.468470483219682,2.9129642443531596
2.215973802346518,2.9129642443531596
2.215973802346518,2.9129642443531596
2.215973802346518,3.021035289264166
2.215973802346518,3.021035289264166
2.215973802346518,3.021035289264166
2.215973802346518,2.9519520565427064
1.9680431095114155,2.9519520565427064
1.9184770574303653,2.9519520565427064
1.8861153261351682,2.9519520565427064
1.8861153261351682,3.0319170716759705
1.8488784784384382,3.0319170716759705
1.8488784784384382,3.0319170716759705
1.8356923567813945,3.0319170716759705
1.7400759700568456,3.0319170716759705
1.697290910628057,3.477634305286127
1.6133860603535732,3.477634305286127
1.6121469079113335,3.5570864086214695
1.6003319105448572,3.6675963515900114
1.5937069381026896,3.6675963515900114
1.5544485731825557,3.6675963515900114
1.5234879683073888,3.6675963515900114
1.5063048534381207,3.6675963515900114
1.4348709957781758,3.6675963515900114
1.3968259971212635,3.6368707467710952
1.3968259971212635,3.6368707467710952
1.3575350668783706,3.6368707467710952
1.3176993372813317,3.6368707467710952
1.3176993372813317,3.654287166129597
1.3176993372813317,3.654287166129597
1.3064987127861956,3.6428637771117622
1.291560672853502,3.6428637771117622
1.2461254374636301,3.6428637771117622
1.2461254374636301,3.654287166129597
1.2461254374636301,3.662156969201183
1.2461254374636301,3.74031827727754
1.2461254374636301,3.726176836697585
