0.817522218673774
0.5051072190821316
0.27404584406105575
0.4045538001845754
0.3586088041396942
0.29873368230884706
0.285297843230763
0.2439225154203979
0.4186955197010468
0.619689335824299
0.7632750091591641
0.8454259553441751
0.9090257703757317
0.9435467277940682
0.966514450049469
0.920556822841432
0.629275269539621
0.4429905216820067
0.3285213775992986
0.5814609950766788
0.9214220507240969
1.06280618525651
1.0251870678185704
1.0976162788896553
1.1025907486430784
1.2278056812704414
1.1084233361254479
0.9865791608028931
0.699460141368451
0.40734634542553266
0.44290707533856477
0.46539677351510056
0.39549939868762557
0.36808214503315256
0.3749558991233389
0.31857049299666373
0.30633747299439235
0.41595904422787267
0.3900859958586291
0.31747085242260803
0.29730293669962005
0.29035846728266496
0.27479158207779697
0.23723006914359
0.23478475875359142
0.2404404345660277
0.25860721151839616
0.2476391857765184
0.2570319023695384
0.22848613948078847
0.267049972568184
0.27060296991116783
0.328067904110513
0.45012866270458707
0.6227661746311434
0.9644357232111199
1.1227879944162735
0.8453469563882405
0.5488128490844593
0.263875730147515
0.39367765196703003
0.6392363301788633
0.6390919383891932
0.4510977657348585
0.3224480766715531
0.31907928674614017
0.26797242958627776
0.24231007485382794
0.2956228502656916
0.32540774568567576
0.2814361721862316
0.2640918742478404
0.3377030191668391
0.3299607817093071
0.35096381981326713
0.39601691657421056
0.44965289106196354
0.4397260052939079
0.5703915889232101
0.7359378230195479
0.864600545273452
0.8252577831130825
0.8106984665885498
0.9786295787776376
1.1560975566107703
1.1070237797554812
1.3349343054214957
0.9979494575071889
1.8179702200064514
2.042981487924687
1.4576698571237772
1.064579136582446
0.29873368230884706
0.7039405476829482
0.639901555148361
0.7059800517277287
0.41657393577333646
0.501460330480794
0.5975990465842519
0.5276819647153522
0.4795088002165719
0.7277412258591184
0.5746589272647371
0.47810912196445515
0.5618212936884784
0.5802707924825814
0.6866209064687632
0.7249316025834995
0.7244287136255904
0.47810912196445515
0.5618212936884784
0.5802707924825814
1.0077488989419812
1.1968785142447833
1.3435064871043645
1.1632443804503383
1.085402556644753
1.2135910946624051
1.3304781158578933
1.3131076470478835
0.9739990032694569
0.8567058140158464
0.7133112508625231
0.7697516463593108
0.9160763544803721
0.9958722439620461
0.9739990032694569
0.7050372579075115
0.6025821280936907
0.6224348609608976
0.7906116270723846
0.8567299483390396
0.7725120004926862
0.7276305371887867
0.8501554610577001
0.9738795462271261
1.331226183048174
1.4353937006542874
1.3631236180356052
1.0700242707036258
1.136694304047033
1.2135910946624051
1.3304781158578933
1.4322286841160339
1.5356360029918976
1.4521423858519023
1.3006779660664791
1.3763382372153297
1.55683487160011
1.6432787286897852
1.3572764156791566
1.253935292341673
1.2276940434185968
1.5537759955584034
1.435610668332587
1.5751318893668924
1.9716820040572178
2.2990357347097636
2.3566771151992665
2.202519672303278
2.8954520560647667
2.297603407130786
1.9890669734856932
1.8242223059788005
1.8414407482327535
1.985363055195178
1.5404254146857965
0.8940836484956135
0.5145150905199944
0.6348836291804518
0.6012087711331324
0.5280036370790883
0.37416753706780753
0.39241720096267996
0.5835336827651514
0.6812271688318026
0.6886988489525978
0.3750568137634905
0.6416508793902265
0.5166646890954913
0.5451171535456549
0.5798806903143091
0.6680635412898815
0.5782464613049889
0.5229105438390905
0.5630700522662311
0.6770642017510337
0.6053953985224818
0.7435090462855092
0.7970697752704508
0.848298995765223
0.8378176381619157
0.6736607619079827
0.8766117620350441
0.7763915311493166
1.0360758325021924
1.0823217712391522
0.9033405753998818
1.0151767779964163
1.2435139234518238
1.356070538657185
1.519580944837264
1.1161906105294126
1.0422414169499226
1.1579160793814538
1.2739102672305276
1.0819531256827006
1.081161676684975
1.2858994354244682
1.322243815415718
1.6021969288378561
1.865388937651338
2.0766859421891626
1.873986131040921
1.8739861310409207
1.774314359441249
1.9156726161105346
1.5690775584618546
2.108244205580314
1.7154081270219979
1.8615039191625085
1.6960502714691754
1.6423482565078191
1.8677044211888338
1.4950134882444812
1.782322597054974
1.435610668332587
1.5368906399563693
1.7139185110655772
1.3509182175430476
1.5845523108011537
1.8327860883024203
1.8327270081208082
2.198387839660877
2.4534059084985698
2.079244618969017
2.1487596226087455
1.7698934647317992
1.6518452843309464
1.3272414612638783
1.1244792365535377
1.7505451828596048
2.1289543306965295
1.5537759955584034
1.6607167116251185
1.2880087752560385
1.315550967023887
1.2069397373694866
1.079731552776779
1.083636668938186
0.8895456665707482
0.9033405753998818
0.8217909472114351
1.018266266034843
1.079731552776779
1.0108167748074326
0.5941837711859188
0.7111517621626406
0.699003588826811
0.902115190065472
1.2262332045608426
1.2424627542695694
1.2340873325389534
1.1586589999910022
1.41474064670917
1.3509182175430476
1.5845523108011537
1.63589199977762
1.5491014170411912
1.3189084216964961
1.7855200926449821
1.2739102672305276
1.0819531256827006
1.081161676684975
1.2858994354244682
0.964313009417305
1.104934460808405
1.2372029035548457
0.9633337482458639
1.1377361218349438
0.8082441975100142
1.2896527721688391
1.5690775584618546
1.8029371882832483
0.9979494575071889
1.5404254146857965
2.072715258079856
1.2786881611748666
1.9980741887452917
2.1552287699274477
2.1648062122472305
2.0114083214354066
2.1417676403565267
2.21845304261289
2.53804486477677
2.012397602951566
1.6513880338212552
1.2459143996026831
1.184713466041008
1.0398998142539544
0.8302720707819632
0.6289359698840267
0.38518318695647535
0.285297843230763
0.2439225154203979
0.3586088041396942
0.619689335824299
0.7632750091591641
0.8454259553441751
0.9090257703757317
0.9435467277940682
0.966514450049469
0.920556822841432
0.683664176308699
0.39823046386182986
0.3285213775992986
0.5814609950766788
0.3750568137634905
0.5691844971421224
0.4683381013123169
0.6454076794557179
0.9304381612695477
1.0524387280298062
0.698017711336679
0.3914771382040945
0.3600180614469352
0.3749858243788885
0.3994115790017447
0.5046859640945092
0.40135878722982804
0.3914771382040945
0.3283790242744614
0.27102020511824304
0.28216822027309607
0.42101590625510893
0.40734634542553266
0.3239837639057165
0.29730293669962005
0.27102020511824304
0.27479158207779697
0.23723006914359
0.23478475875359142
0.2404404345660277
0.2570319023695384
0.22848613948078847
0.267049972568184
0.27060296991116783
0.328067904110513
0.39823046386182986
0.6227661746311434
0.9644357232111199
1.1227879944162735
1.5749427571787034
0.6533929304239796
1.0762049820734647
1.006972035376587
0.8046016529794913
0.668407696642814
0.41965537241843515
0.3715882673593008
0.4133753682907753
0.3224480766715531
0.31454330252562157
0.263875730147515
0.24231007485382794
0.2640918742478404
0.32862003412718493
0.3366860479525766
0.34675938998777084
0.3299607817093071
0.35096381981326713
0.39601691657421056
0.4397260052939079
0.5821900062473244
0.5472751023034618
0.5100944125932896
0.5953598111517404
0.4353712231831327
0.4591095357129524
0.5518387615171204
0.66216503957566
0.8165305277900415
1.0852880144127381
1.6107998191944426
1.8096059814433922
2.2147394838882293
1.2449576443653798
0.710401885487159
0.5476299538871063
0.6239213871661001
0.6870301229003711
0.5852539269687327
0.5313955671712218
0.5334028378409579
0.5953598111517404
0.7043162264707089
0.41657393577333646
0.501460330480794
0.5511432161153026
0.5276819647153522
0.4795088002165719
0.7277412258591184
0.6707227869684255
0.7431743824840445
0.6218660708802327
0.6599190823687513
0.6878087877491045
0.9641063458119803
0.78926922870566
0.9068040147207361
0.8063326868899893
0.7800786800295227
0.7906116270723846
0.6533929304239796
0.7725120004926862
0.7276305371887867
0.8543927069381348
0.9738795462271261
1.840720478014489
1.6364690890343367
1.56539773656292
1.9300338034671336
1.534319958641583
1.2798963246655284
1.6452828166939977
1.7785951612918514
1.7159173030035257
1.550057351460565
1.2945392079143831
1.1194568468280521
1.411595973915345
1.803832834110947
1.8932370075184808
1.0914801708925301
0.9848921336926993
0.8106984665885498
0.9199335100663087
1.3843201928012485
1.296624284930586
1.267069935171157
1.2629388949432179
1.2075928600120718
1.147686393749012
1.1278646942475186
0.78926922870566
0.9275450718022902
0.8339826268860379
1.1058078624000944
1.149625945652021
1.2846811831479632
1.3572764156791566
1.01122124136953
0.8501554610577001
0.9832060090631202
1.6395709460010799
2.117116434361571
1.751117030641299
1.4822976164755157
1.554575781265299
1.3731212416689598
1.0855610933168849
0.7778897954707416
0.6736607619079827
0.6722795118668662
0.6012087711331324
0.5280036370790883
0.46938449262858667
0.4763129603741503
0.40757465508199997
0.5151092201517194
0.5447130750024155
0.4899536912955263
0.4716634263928765
0.4214563133719687
0.498635722533883
0.47627117196704616
0.5447130750024155
0.4899536912955263
0.37416753706780753
0.39241720096267996
0.40757465508199997
0.47627117196704616
0.5783548394053697
0.7435090462855092
0.7970697752704508
0.848298995765223
1.0071284286169953
1.0976812960552451
1.2063068232199923
1.0850497919276303
0.9825096993556738
0.7778897954707416
0.6784894622555703
1.0053710752152005
1.021459221326532
1.0360758325021924
1.2589746725295003
1.022694779732307
0.9992196643368778
1.3970437677710996
1.428699993051383
1.4020425594391905
1.2938119904471554
0.9665878580362438
0.9781639284666004
1.068456606501334
0.9633337482458639
1.1377361218349438
0.8082441975100142
1.1876979933825986
1.497099380281512
