1.3444340288484562
0.6484636907793851
0.60948541520317
0.5255878611883049
0.7048192505638031
0.5644975715334347
1.0032452529094151
0.5598792868734506
0.291880233985051
0.2454365849112147
0.33296705321595926
0.3922083701728286
0.4171165469692298
0.44626468734086344
0.4726427150914211
0.5030795290768278
0.5328098689415511
0.49784327630602737
0.3474093815937455
0.3348085163005495
0.6066563622178814
0.4939555084729075
0.36109877288175835
0.367419117445062
0.2546341960962874
0.36518063972251014
0.3866174759094574
0.35730832523067285
0.37411532520315033
0.34775023600887
0.431817921570447
0.37604294975188457
0.43944007282305575
0.46526539485095
0.374441716718063
0.29805279669245954
0.3647108876963948
0.32049162368235307
0.4033660387529286
0.43056816873009934
0.28657273195689725
0.3077990338182079
0.39498903443049743
0.5330131222900749
0.41329882907672993
0.38381510968499827
0.43972104410871193
0.5046385192444638
0.7218996576421736
0.6116817604634684
0.50895153696329
0.3866174759094574
0.3346197308541617
0.30315810509657953
0.3080556741501122
0.3143753229759487
0.27797399824456914
0.32578588478039927
0.2952113750481424
0.27148963543232846
0.2723682581347437
0.3080556741501122
0.32723882797445825
0.28657273195689725
0.29695039086719327
0.39498903443049743
0.4849335496032044
0.8756700652731513
1.073661686281345
0.9385437281125423
0.456775715086776
0.35231734808212245
0.2812370837388862
0.24099047203250154
0.18353832243411877
0.19271440847642862
0.17277574568928877
0.17131496043429392
0.16876006631366047
0.14839891971721803
0.16354774284175322
0.18151555064586283
0.2017210053312393
0.30206886086382884
0.39916570697807857
0.33652230897185054
0.4640983650419682
0.5092469033527991
0.4371110323826339
0.514840979830743
0.2867794100088356
0.24099047203250154
0.22183641674910465
0.21583121373898043
0.22673533400545898
0.34839826540357105
0.31096662404851655
0.2568138126057608
0.5408013276581259
0.6585783306286079
0.7890977923180144
1.2230344532504696
0.9795073469667698
1.0887125527681718
1.079050752744538
1.0643732737515552
1.1314881608499077
1.0981109243500156
0.9686288910108168
0.9569734547563408
0.9204956442791344
0.9009576913520112
0.8315426560647086
1.3127836908328787
1.2787564674287146
0.9795073469667698
1.0754689339837789
1.2297132923786687
1.302816293213741
1.4845019609197407
1.077980496661417
0.9442171588694144
0.6546056748785467
0.7479637916049089
0.7836021111272778
0.8756743649347223
0.859487773600468
0.7678538659120112
0.5006099953379843
0.5864676246510934
0.5954865497840925
0.6134570681353381
0.6543927261941068
0.7685536478313914
0.7208247100723186
0.8166890156625407
0.7836021111272778
0.8756743649347223
1.0418778662651484
0.8703882797784892
0.6994646147112229
0.777660374289335
0.7355467824815423
1.0357982333633287
0.8515278732089938
0.7678538659120112
0.49293407698665054
0.43278320295057054
0.5059625886528462
0.533097654723097
0.5170521884916421
0.3745433833502839
0.27149701920491454
0.3416925446420136
0.3752300650269004
0.5008776626618985
0.5600002169653986
0.8738520951844702
1.0887125527681718
2.454697692002243
2.3166638634949557
1.3449460823557957
1.8356529317770975
1.6722915318974387
1.759805360098006
1.5984758161748787
1.4318153278596304
1.1257264117816546
1.1342602398404988
0.8460477676144207
0.8898601219310254
0.7597392054637928
0.509059558655127
0.26067191044877774
0.486953394408507
0.5892604662043402
0.8751859677243885
0.71401039769102
0.7193132008255108
0.6374295025426487
0.5966210942330515
0.6552230114164934
0.617296702148725
0.48234839967094556
0.43224289604159316
0.2590516154627877
0.4169380236632005
0.31478685262461864
0.45994367234417044
0.4818526106981028
0.482220267069507
0.6220220515363463
0.5628437548650097
0.5881899160512659
0.5853329976558691
0.41329882907672993
0.38381510968499827
0.48553381883811814
0.4480281131693347
0.4729871134719703
0.5470603924884818
0.609951308947575
0.5266887106479524
0.5021716191280342
0.8264637067331082
0.8460477676144207
1.5231156326001813
1.3981413161959804
1.3472846075225893
1.0667776653968617
1.402789671264716
2.0845226388795766
2.356453374730993
2.051524315059483
2.061319713647066
2.1922842530490096
2.1734697340174347
2.5140184245276758
2.4056198365257906
2.068130917370743
1.765814337781428
1.566398355575345
1.6722915318974387
1.16903160087039
1.1900484025484168
1.3862836881663445
1.0945460045509647
1.6869640662841172
1.9657858663159418
1.719146308065186
1.870096270211591
2.256741046288075
2.2373770232140378
2.151450956600888
2.1528645136720055
1.2492025344194968
1.2097067381507516
1.262818848336571
1.304445577756093
1.636915368707628
1.7888403720909472
1.1817964573412316
1.583600789592633
2.4502038054102013
1.9702086165888342
1.56469143449617
1.2792334503019154
1.4425809538893195
1.464269185617306
1.3862836881663445
1.0945460045509647
1.12684340310328
0.986315486253519
1.8245349157381463
1.6997138122551534
1.4042982925566097
1.2442464158839452
1.5242405362875853
1.2792334503019154
1.16903160087039
1.1900484025484168
1.6826620844716296
1.5249508793126159
1.409251786280235
1.1695301702085226
1.0054239552947979
1.1613464166052145
1.2890776762076888
1.1365100645453412
1.0328508366154934
0.9946915115559043
1.149136952567668
1.1782022250005784
2.241290412021715
2.129244662564568
1.409251786280235
1.1695301702085226
1.0054239552947979
2.100696913181169
1.9842187413621766
1.5762329493221738
1.3392727868036367
1.4107602143573041
2.173752916793305
2.27916035100606
1.9318654118041494
1.8009849660482558
1.8043581749560325
1.2492025344194968
1.2097067381507516
1.262818848336571
1.304445577756093
1.636915368707628
2.0562082951605873
1.9873061336761213
1.8435543958499065
1.9236792016558157
2.134538158453277
2.326028278021405
2.3260282780214045
1.6824708651493
1.1734347374426073
0.9297672414379146
0.46305709370840814
0.4845376394254858
0.291880233985051
0.2454365849112147
0.33296705321595926
0.3922083701728286
0.4171165469692298
0.44626468734086344
0.4726427150914211
0.5030795290768278
0.5328098689415511
0.49784327630602737
0.3474093815937455
0.3348085163005495
0.5609952485427889
0.6185825825617461
0.41031791536000956
0.4433624159105527
0.4923598096122759
0.4679793437556504
0.3673062967280232
0.32049162368235307
0.4033660387529286
0.3968136901544203
0.3848587439721733
0.36117553196672963
0.3768843899752694
0.4131302815255722
0.33106537909053874
0.403277335498152
0.3346197308541617
0.3079512574047629
0.3005434899383648
0.27965913979519946
0.28722720417881165
0.3143753229759487
0.27797399824456914
0.32578588478039927
0.34830335828872805
0.2590516154627877
0.3673062967280232
0.45348963100317397
0.4841535452654713
0.4637714226271758
0.37211182366378937
0.2910687422035494
0.3020114026388651
0.32369956210661965
0.28016637878739703
0.261601398772621
0.2963088785653086
0.2910687422035494
0.2967992694212092
0.28722720417881165
0.28016637878739703
0.261601398772621
0.2723682581347437
0.4464338935183999
0.4849335496032044
0.8756700652731513
1.073661686281345
0.9385437281125423
0.456775715086776
0.35231734808212245
0.2812370837388862
0.18353832243411877
0.19271440847642862
0.19999355148551887
0.17131496043429392
0.16876006631366047
0.16262582607809092
0.14839891971721803
0.16354774284175322
0.18151555064586283
0.20441021935181147
0.31096662404851655
0.2568138126057608
0.3677585029403447
0.25992246129224444
0.32780347846390995
0.4488734176794338
0.38185585552940055
0.3941946942690656
0.34126041377300176
0.33479828193724714
0.3437183121090061
0.3433178369722821
0.2663032363836998
0.29752724001883507
0.25992246129224444
0.32780347846390995
0.42796049251091295
0.6113459248417121
0.6894620367715133
0.8220688136838896
1.1310821970077576
0.6696457328095838
1.0232455489782284
1.1333328621524859
1.2080711161742175
1.0538217780654093
0.8112187031796516
0.8815994251273226
1.247880492479543
1.362358725842539
1.1616654539232294
0.8427361201823445
0.6820671362408415
0.6950852255458784
0.8117045875256419
0.6530823165310241
0.9686288910108168
0.9569734547563408
0.9204956442791344
0.9009576913520112
0.8315426560647086
1.2864543572650706
1.114696060535907
0.7856646234940917
0.7801740548299663
0.6012354181775873
0.8693680743865762
0.6530823165310241
0.8278385111907272
0.8011961665560522
0.777660374289335
0.6749911272366851
0.7048192505638031
0.5188588882576849
0.6947087511543223
0.6298642643603695
0.5092469033527991
0.5315352199584058
0.7234932419482553
0.7918728309641305
0.8937168584151144
0.7794615211316348
0.6696457328095838
0.7119525908453411
0.7096960234515421
0.5188588882576849
0.6346678519820045
0.5222640783411764
0.49293407698665054
0.43278320295057054
0.5059625886528462
0.533097654723097
0.5170521884916421
0.3745433833502839
0.27149701920491454
0.3416925446420136
0.3752300650269004
0.5008776626618985
0.5600002169653986
0.8738520951844702
2.0193658467500017
1.9364595592017084
1.18761124830373
0.5046385192444638
0.744972755804306
0.8551763509081798
0.8488468510576924
0.7163771328766915
0.509059558655127
0.26067191044877774
0.486953394408507
0.5526642186923643
0.5272515782454136
0.4191992721518834
0.36109877288175835
0.367419117445062
0.2546341960962874
0.36518063972251014
0.40327667418401136
0.3847366218495041
0.3835128627189061
0.29805279669245954
0.3647108876963948
0.31478685262461864
0.45994367234417044
0.4818526106981028
0.482220267069507
0.6009748817080396
0.5630195806171918
0.9235667723177209
1.0829531465997648
0.8832285178095862
0.9119297155121119
0.9376988620001131
1.0996987627746497
1.2230742164077666
1.3208189210862764
1.1757310357731854
0.7361712966754175
0.8137512291712126
0.986315486253519
1.1464414457637895
1.1613464166052145
1.250018815964202
1.1010014398167187
0.9716331848193912
0.9946915115559043
1.149136952567668
1.1782022250005784
1.9842187413621766
1.5762329493221738
1.1879747455720615
1.402789671264716
