1.3709382688061458
1.1991873731320746
1.1991873731320746
1.1991873731320746
1.1991873731320746
1.1991873731320746
1.1991873731320746
1.1991873731320746
1.1991873731320746
1.3791455211992931
1.4881382521441286
1.7875083448050098
2.051365691651899
2.350583712896313
2.656268593807958
2.8340861890889517
3.3030692152345167
3.3030692152345167
3.3030692152345167
3.3030692152345167
3.3030692152345167
3.3345954889637226
3.3345954889637226
3.6777035183206332
3.6777035183206332
3.6777035183206332
3.781765152238027
3.955365150202921
3.9808774440515875
3.985469523749366
4.0060685186921425
3.9959728462415907
3.9808774440515875
3.964089376193301
3.964089376193301
3.956747580059467
3.917671736278645
3.8862040899135932
3.8837997503814106
3.8541587888936406
3.85292318721129
3.8375633737240076
3.834056681151628
3.7545467612173855
3.6351197158047874
3.4868607800518605
3.2782898257127466
2.7730791471111864
2.098788507177501
1.924467808647903
1.6056017219191876
1.579827464319302
1.5436238281933954
1.5402514935819713
1.5256983236241326
1.4576698571238973
1.4576698571238973
1.5402514935819713
1.5290067559146199
1.4537704792105648
1.417597300322474
1.417597300322474
1.417597300322474
1.4537704792105648
1.3794635771234451
1.3794635771234451
1.3646226718775987
1.3646226718775987
1.3646226718775987
1.356292031021859
1.356292031021859
1.3066714367726011
1.059575037938572
0.0
0.0
0.0
0.0
0.0
0.0
0.0
0.0
0.0
0.0
0.0
0.0
0.0
0.0
0.0
0.9725290222380459
1.2798003728758167
1.3217508209543607
1.5379064454646747
1.5379064454646747
1.4747301250701077
1.4747301250701077
1.3217508209543607
1.2798003728758167
1.2526597875878263
1.2526597875878263
1.2526597875878263
1.0320581098848267
0.9403229307375444
0.9403229307375444
0.9403229307375444
0.9403229307375444
1.0077488989419667
1.0320581098848267
1.1968785142447564
1.1968785142447564
1.1968785142447564
1.1968785142447564
1.2172761194634396
1.5216214590801416
1.475407067662568
1.5216214590801416
1.5216214590801416
1.3104889846352272
1.3104889846352272
1.3104889846352272
1.07303011428452
1.07303011428452
1.07303011428452
1.07303011428452
1.07303011428452
1.3104889846352272
1.3293022367577865
1.4196609391317625
1.5119792587405954
1.5119792587405954
1.515569447759917
1.528668530820858
1.6916819286830587
1.5501991921939933
1.5501991921939933
1.5356360029919192
1.5501991921939933
1.6591123603768398
1.6591123603768398
1.6591123603768398
1.6591123603768398
1.6591123603768398
1.6591123603768398
1.7514101531483068
1.809070780459793
1.8120871899582955
1.9704179381153177
1.9704179381153177
2.007779550193137
2.048127913237611
2.048127913237611
2.197511519448368
2.197511519448368
2.515889691379633
2.891364374609494
3.090820901872118
3.2430558047573674
3.299229487776776
3.299229487776776
3.318779052220785
3.3780729670666374
3.71214393326099
3.4456546064884184
3.4456546064884184
3.4456546064884184
3.4456546064884184
3.4456546064884184
3.5979969718072895
3.5979969718072895
3.5979969718072895
3.5979969718072895
3.5979969718072895
3.757143081402195
3.757143081402195
3.757143081402195
3.64801944579119
3.64801944579119
3.64801944579119
3.757143081402195
3.757143081402195
3.64801944579119
3.6210250977145546
3.6210250977145546
3.6210250977145546
3.6210250977145546
3.6180762244061144
3.32554873227243
3.2942093060656092
3.2942093060656092
3.2942093060656092
3.32554873227243
3.2942093060656092
2.8881528275893276
2.852632703111556
2.852632703111556
2.852632703111556
2.852632703111556
2.666743040552922
2.666743040552922
2.666743040552922
2.666743040552922
2.666743040552922
2.666743040552922
2.666743040552922
2.7737253138318314
2.7737253138318314
2.7737253138318314
2.7737253138318314
2.7831461435721754
2.8459232685262137
2.7737253138318314
2.7737253138318314
2.7737253138318314
2.7737253138318314
2.7831461435721754
2.7831461435721754
2.7831461435721754
2.7831461435721754
2.7831461435721754
2.8220849122876728
2.8124466874486385
2.8220849122876728
2.686050127763008
2.613467102582258
2.50033558921478
2.50033558921478
2.50033558921478
2.50033558921478
2.50033558921478
2.50033558921478
2.50033558921478
2.50033558921478
2.697103695860613
2.746238796903426
2.746238796903426
3.111370604059484
3.111370604059484
3.111370604059484
3.2569004968044566
3.259163129473523
3.2218219609775867
3.050194808005018
3.050194808005018
3.050194808005018
3.050194808005018
3.050194808005018
2.78254964023643
2.78254964023643
2.78254964023643
2.78254964023643
3.1196551396147774
3.1196551396147774
3.1196551396147774
2.8333250854833567
2.8333250854833567
2.8333250854833567
3.3568809307465535
2.8333250854833567
2.7626601884126836
2.7626601884126836
2.7626601884126836
2.7626601884126836
2.7363077509371374
2.7363077509371374
2.497869417489382
2.497869417489382
2.497869417489382
2.497869417489382
2.7363077509371374
2.7363077509371374
2.7063037050355825
2.7063037050355825
2.7063037050355825
2.7063037050355825
2.7063037050355825
2.7063037050355825
2.3571706001809387
2.349382690616355
2.349382690616355
2.349382690616355
2.349382690616355
2.349382690616355
2.349382690616355
2.349382690616355
2.349382690616355
2.6825270869486917
2.7309725691197295
2.7309725691197295
2.6825270869486917
2.6825270869486917
2.4615335970902272
2.1658031064119476
2.1658031064119476
1.940375640573784
1.940375640573784
1.940375640573784
1.86538694410445
1.8198754553946588
1.7729380291224361
1.330205170237117
1.190978067504606
1.190978067504606
1.190978067504606
1.190978067504606
1.190978067504606
1.190978067504606
1.190978067504606
1.190978067504606
1.3349343054215057
1.7903260422520333
2.0846324644257903
2.6847736791177215
3.1817404517089263
3.448579840161567
3.5020115878656055
3.5328303259075917
3.5459928898502997
3.7578088490124917
3.742463703642068
3.7578088490124917
3.949986821594317
3.954573467569882
3.995818732049706
4.022214454064145
3.967379543120096
3.9171987844536234
3.9171987844536234
3.9171987844536234
3.995818732049706
3.995818732049706
3.9171987844536234
3.8892005673117347
3.7639159417976855
3.7639159417976855
3.8569771661854015
3.8569771661854015
3.8337118592156307
3.7614555479303484
3.7508732069419097
3.742944855096497
3.573559696469801
3.4414084864672567
3.2807483437811267
3.0762239483941407
1.988746928089061
1.988746928089061
1.988746928089061
1.6334063823343716
1.6162995351012368
1.3442912212246136
1.3442912212246136
1.3442912212246136
1.325824464870591
1.325824464870591
1.325824464870591
1.3764951073643572
1.3764951073643572
1.3764951073643572
1.3993299106973507
1.4967807836008968
1.5220105043508803
1.5482087894815229
1.5220105043508803
1.5220105043508803
1.5220105043508803
1.5220105043508803
1.5173459043200863
1.335556975752929
1.335556975752929
1.335556975752929
1.335556975752929
1.335556975752929
1.252688440253635
1.252688440253635
1.252688440253635
1.335556975752929
1.3456459778024004
1.380900424860827
1.6107998191943704
1.6107998191943704
1.380900424860827
1.380900424860827
1.380900424860827
1.5907164366356608
1.3771910594051753
1.3771910594051753
1.3771910594051753
1.3771910594051753
1.3771910594051753
1.3759524731667332
1.351920869952838
1.422397368308147
1.422397368308147
1.422397368308147
1.422397368308147
1.422397368308147
1.2537721823066363
1.2155801481378514
1.2155801481378514
1.2155801481378514
1.2175160841658377
1.2175160841658377
1.2175160841658377
1.2175160841658377
1.2175160841658377
1.2175160841658377
1.2175160841658377
1.232420360050899
1.3300363086026665
1.4343407792746563
1.4343407792746563
1.4343407792746563
1.4604435759121135
1.4728929001815558
1.543185271023749
1.6653603838670572
1.9080041969597228
1.8745283107329245
1.9080041969597228
1.979578957031646
2.01615474669702
2.01615474669702
2.019744838546032
2.069608138998847
1.997946528947712
1.997946528947712
1.8748925498380344
1.8745283107329245
1.6410465201962172
1.6410465201962172
1.6410465201962172
1.6410465201962172
1.6410465201962172
1.4135148977442358
1.4135148977442358
1.3839683684733244
1.4135148977442358
1.4135148977442358
1.5087328475076955
1.5087328475076955
1.5087328475076955
1.5087328475076955
1.5087328475076955
1.4135148977442358
1.5087328475076955
1.5087328475076955
1.871293709097535
1.871293709097535
1.871293709097535
2.051867585431454
2.051867585431454
2.051867585431454
2.1432504398578223
2.1432504398578223
2.1432504398578223
2.980016271108298
3.0606473570718733
3.0606473570718733
3.1169920065279686
3.3048223736168207
3.5536600448106745
3.717493081067839
3.717493081067839
3.55465288815685
3.55465288815685
3.55465288815685
3.55465288815685
3.55465288815685
3.55465288815685
3.55465288815685
3.55465288815685
3.55465288815685
3.5703428860690223
3.5703428860690223
3.5703428860690223
3.287871154457627
3.287871154457627
3.287871154457627
3.5703428860690223
3.5703428860690223
3.2103052815429325
3.2103052815429325
3.2103052815429325
3.2103052815429325
3.607308017465908
3.690345382745928
3.690345382745928
3.607308017465908
3.607308017465908
3.607308017465908
3.690345382745928
3.4578401674053922
2.971407582251195
2.971407582251195
2.971407582251195
2.971407582251195
2.971407582251195
2.8297513982801816
2.8297513982801816
2.8297513982801816
2.8297513982801816
2.8297513982801816
