0.9878817299823718
0.9878817299823718
0.9878817299823718
0.9878817299823718
0.9878817299823718
1.0495825374028904
1.1918185018349357
1.3201484056351969
1.3292507504532065
1.3292507504532065
1.3741258666443306
1.5719941060530636
1.6166143837511404
1.4585080528645542
1.3741258666443306
1.3137839726551706
1.297631357554137
1.2906132080681203
1.2677973195747505
1.1930054574573672
1.1689784698854542
0.9571987025807791
0.8916631169010567
0.8916631169010567
0.8916631169010567
0.8916631169010567
0.8916631169010567
0.8916631169010567
0.9395036674745502
0.9752337512127047
0.9956445834250299
1.014067625394109
1.014067625394109
1.014067625394109
1.0279631803939138
1.0279631803939138
1.0279631803939138
1.0804547661962856
1.1167080132351552
1.1556437264043593
1.1556437264043593
1.1556437264043593
1.1556437264043593
1.1556437264043593
1.3269902712707646
1.287064014698181
1.1247948914719728
0.9040512198509097
0.9040512198509097
0.8701014036283125
0.7867107361529471
0.7349437206642317
0.7349437206642317
0.7349437206642317
0.7867107361529471
0.7867107361529471
0.7349437206642317
0.7867107361529471
0.7867107361529471
0.7867107361529471
0.5819498844839146
0.4849335496026713
0.44643389351861235
0.35231734808229004
0.2866090473817903
0.28123708373892453
0.24268800825983852
0.24268800825983852
0.24268800825983852
0.24268800825983852
0.24268800825983852
0.24268800825983852
0.24268800825983852
0.24268800825983852
0.36951605226503315
0.53834425815141
0.6746281071115554
0.7147524513070296
0.7147524513070296
0.6746281071115554
0.5754388197420196
0.5492168840312546
0.4792638894253143
0.34634592767797284
0.34634592767797284
0.34634592767797284
0.34634592767797284
0.34634592767797284
0.34634592767797284
0.34634592767797284
0.34634592767797284
0.34634592767797284
0.5562221906088086
0.7281781429369989
0.9274299738570104
1.1774014724266868
1.3409552948577472
1.467927297697662
1.6589475008016061
2.2962997586602603
2.324257319131827
2.3464703438159984
2.2909654936938537
2.2909654936938537
2.2909654936938537
2.2909654936938537
2.2909654936938537
2.2909654936938537
2.2909654936938537
2.2909654936938537
2.218944223184203
1.9974010372813065
1.7324644236893303
1.6442152794766904
1.6403561316239972
1.6403561316239972
1.6403561316239972
1.6403561316239972
1.545690051301489
1.543825921110272
1.4961947805688338
1.4961947805688338
1.4961947805688338
1.5208327725318447
1.6095285658110217
1.5208327725318447
1.5208327725318447
1.5208327725318447
1.5208327725318447
1.5611064807009152
1.5611064807009152
1.5558496631830807
1.5558496631830807
1.5558496631830807
1.5558496631830807
1.5558496631830807
1.5558496631830807
1.484941847225885
1.484941847225885
1.484941847225885
1.484941847225885
1.484941847225885
1.5517162885155753
1.4784668129434717
1.4784668129434717
1.4784668129434717
1.4784668129434717
1.5238030935763038
1.5472961908838128
1.7081533002168292
1.7081533002168292
1.7081533002168292
1.7081533002168292
1.8314256264938151
2.1611589494879806
2.4844183716623176
2.4844183716623176
2.4844183716623176
2.4844183716623176
2.4844183716623176
2.442112493770831
2.314874527912184
2.177365234363641
2.176508089011772
2.0903456424898987
1.876737868042866
1.8139554063873575
1.8139554063873575
1.8139554063873575
1.8139554063873575
1.7615682020019203
1.7005723223213585
1.6782723454711816
1.5563070800443966
1.4869672765040718
1.4869672765040718
1.4869672765040718
1.4869672765040718
1.435740012080334
1.435740012080334
1.435740012080334
1.435740012080334
1.435740012080334
1.3702737932074933
1.361886650261308
1.2976787972331643
1.361886650261308
1.3702737932074933
1.3702737932074933
1.3702737932074933
1.3663811920555613
1.3663811920555613
1.3663811920555613
1.3663811920555613
1.3663811920555613
1.4479418736258058
1.450544959117219
1.471881720114541
1.634374887275445
1.7052452446109363
1.7879858625191694
1.823457009426358
2.148661908488468
2.421443030614458
2.4426754159515736
2.5342816720009615
2.733936656211447
2.8566194065203487
2.9693037605722994
3.132700428804004
3.1434343063504424
3.2870396921189475
3.3362636762755566
3.2870396921189475
2.9693037605722994
2.9693037605722994
2.9713459530421114
2.9713459530421114
2.9713459530421114
2.9713459530421114
2.9713459530421114
2.849644702235574
2.849644702235574
2.849644702235574
2.9713459530421114
3.125754196940113
3.2342353604640905
3.3569455616806683
3.174101523400363
3.174101523400363
3.174101523400363
2.937090794088606
2.9736121671552427
2.9736121671552427
2.9736121671552427
2.9736121671552427
2.9736121671552427
2.9736121671552427
2.9736121671552427
3.0250266540643924
3.0187921739095107
3.0187921739095107
3.268884288075057
3.12841885829806
3.059036840721081
3.0187921739095107
3.0187921739095107
2.9948151332103343
2.916027136900019
2.916027136900019
2.916027136900019
2.856509981852751
2.856509981852751
2.9138565889391645
2.9138565889391645
2.916027136900019
2.990992746500117
2.856509981852751
2.916027136900019
2.542895230334194
2.481938510613109
2.481938510613109
2.9487091008696664
2.481938510613109
2.481938510613109
2.481938510613109
2.481938510613109
2.481938510613109
2.8255143266887086
2.8255143266887086
2.9487091008696664
3.082440259550279
3.313237706781222
3.313237706781222
3.616006483107451
3.625496554485305
3.625496554485305
3.4924066012169415
3.4924066012169415
3.4924066012169415
3.6471601654467873
3.313237706781222
3.276649624644434
3.276649624644434
3.276649624644434
3.276649624644434
3.276649624644434
3.276649624644434
3.276649624644434
3.276649624644434
3.090842525521287
2.4181834083939933
2.163712038664107
1.8765943542375743
1.8253236036469
1.710061747210268
1.4834559131673648
1.2593748119006596
1.2593748119006596
1.2593748119006596
1.2593748119006596
1.2593748119006596
1.2593748119006596
1.2593748119006596
1.2593748119006596
1.3410642066267615
1.3410642066267615
1.3755964842234962
1.5405677235150284
1.8597145168578535
1.8336785180662205
1.5405677235150284
1.5352941448129382
1.5234093250209553
1.1925909349297166
1.1799798555570384
1.04492854198725
0.9844216161845464
0.9844216161845464
0.9812809715602179
0.9812809715602179
0.9726986980662689
0.9726986980662689
0.9726986980662689
0.9726986980662689
0.9726986980662689
0.9726986980662689
0.9609723940425562
0.9026691393028301
0.8569971416990001
0.8569971416990001
0.8569971416990001
0.9886719648039092
0.9886719648039092
1.007694063294698
1.0922400513975592
1.13070813716516
1.13070813716516
1.13070813716516
1.13070813716516
1.13070813716516
1.13070813716516
1.11247835517006
1.0298905865633654
0.9938935348458116
0.9765883238888421
0.8847584804606484
0.8847584804606484
0.8774970589516685
0.8774970589516685
0.8774970589516685
0.7641603502300215
0.745422590811456
0.0
0.0
0.0
0.0
0.0
0.0
0.0
0.0
0.0
0.0
0.0
0.0
0.0
0.0
0.0
0.28066427840362174
0.44024640121706804
0.5699883487329637
0.5883473948387286
0.6160777332635308
0.645941472824862
0.645941472824862
0.6160777332635308
0.5765805973984128
0.566543329120218
0.5442681830539392
0.4424197650484432
0.4424197650484432
0.4424197650484432
0.4424197650484432
0.4424197650484432
0.4424197650484432
0.4424197650484432
0.4424197650484432
0.5708163895325365
0.7027267954902746
0.7628502730120476
0.8031126935765976
0.8100782551357892
1.0049574129159082
1.3126678925483433
1.5645910997872998
1.6931108172416627
1.7603271058478827
1.7698528328683232
1.7698528328683232
1.7698528328683232
1.7698528328683232
1.7828651637705486
1.7828651637705486
1.7828651637705486
1.7828651637705486
1.7828651637705486
1.8282785606988097
1.8282785606988097
1.8282785606988097
1.8282785606988097
1.815303566803053
1.604432532797302
1.5935010400580052
1.5244602920175574
1.5244602920175574
1.5244602920175574
1.5244602920175574
1.5244602920175574
1.4475514977867874
1.4234312205317268
1.413391932924143
1.3450012184802982
1.3450012184802982
1.3348433843115097
1.3150867248165194
1.2800716255287
1.2800716255287
1.2800716255287
1.2800716255287
1.2800716255287
1.1944136667261855
1.0773322810293313
1.0773322810293313
1.0773322810293313
1.0773322810293313
1.1308117551789962
1.1717030973550884
1.1717030973550884
1.1717030973550884
1.1717030973550884
1.1717030973550884
1.2861101128752594
1.3636782638183267
1.3721921976035654
1.3721921976035654
1.3721921976035654
1.3721921976035654
1.4699710744937258
1.499182172257222
1.7028973585742084
1.7028973585742084
1.7028973585742084
1.6580817911620778
1.5375920924849873
1.7758953665390318
2.1625531094200197
1.83626447226005
1.8109670468144086
1.7758953665390318
1.6580817911620778
1.6419592831471796
1.5226014347951624
1.4907395061925166
1.369835736788884
1.331190532823219
1.2959538542317763
1.2808572301764896
1.2157669663937805
1.2157669663937805
1.2157669663937805
1.2157669663937805
1.1175608524753071
1.1324526220660658
1.1324526220660658
1.1324526220660658
1.1324526220660658
1.155657418711058
1.2165387891150132
1.2961849574923006
1.4005019812518325
1.4077065713236205
1.501859117297819
1.5932376109874624
1.6533632095378976
1.7093625012012261
1.739804804188962
1.7914120246868213
1.9802787248323959
2.0152653340841837
2.0429377987205224
2.242353796017883
2.0429377987205224
2.242353796017883
2.2727890063022813
2.278269278060855
2.278269278060855
2.309700013428206
2.309700013428206
2.309700013428206
2.359172564602339
2.359172564602339
