0.9346193481266588
0.4159847851188888
0.362815741202175
0.4884965251321551
0.616764941376875
0.4899249551404178
0.38573392645773114
0.3925532768109722
0.1880756263348799
0.11826697066858716
0.13611544511406748
0.15119530975644102
0.17297774717961065
0.1529651365754048
0.16839188874758873
0.1867444568187794
0.20503421069395256
0.22546793108607693
0.21118811219651606
0.18994429632884455
0.3468634959790147
0.34259506926052397
0.33620496098427494
0.367419117445062
0.2546341960962874
0.36518063972251014
0.3470447155894604
0.35730832523067285
0.29038886227835115
0.2620343047228606
0.17759347745616821
0.2107341213848402
0.3854922535782549
0.30963588417129634
0.32654615750647475
0.24368937211526764
0.3064892943367778
0.31380442868992325
0.3630820099026487
0.23825000441300836
0.24734529521225287
0.2462134516036802
0.3768484423027725
0.3832198191498202
0.3693107971642477
0.27420691670086733
0.4169435129856627
0.29276584135696315
0.2687064296780167
0.20366848777184346
0.18281966671285207
0.22589560768812333
0.19787243518393036
0.16970389013054765
0.1712345844993377
0.18368499202973138
0.20704645752205067
0.21333964913588913
0.22876672046229837
0.255910605199929
0.22352434084978912
0.24933484210522422
0.24540837853045375
0.24764804985479044
0.2544698323326255
0.35961444009863064
0.4849335496032044
0.734504123461629
0.5140123888537517
0.3140853274634745
0.24099198621099138
0.17931329136783952
0.15678799428088236
0.14414592908375454
0.12353828716887906
0.1197029517555772
0.12244936968848949
0.11435823879791003
0.10631916819778069
0.10593665687158905
0.10883861237917815
0.1273711132015078
0.14136385708803875
0.1622582883306431
0.18201467821619027
0.326002320152047
0.33981243804205513
0.3225475425655907
0.33809807246397183
0.41505500600746154
0.2867794100088356
0.24099047203250154
0.19596465127407933
0.20774385906322498
0.1655434920954756
0.22544053609342618
0.20099138025169203
0.1930863883033678
0.16454958919161072
0.2126842707148777
0.3525733370749182
0.6648677401714622
0.7729582196458333
0.5631436353188494
0.6132596491572146
0.8024969376238142
1.0327145944629408
0.7772606033718181
0.8008319614979589
0.5645755050977111
0.7416429807420908
0.8498115028938773
0.8315426560647086
0.7670228512001033
0.6942611475729696
0.7435803678045129
0.7617886450528453
0.8622556915393423
0.8860686850078004
0.793264679383809
0.8234870998095647
0.6634818887899961
0.5289176392750059
0.5172683714060764
0.657399983114985
0.7069171514873372
0.7328767305633694
0.5843328447942255
0.5006099953379843
0.5864676246510934
0.5954865497840925
0.6134570681353381
0.6543927261941068
0.6503097010236228
0.5135389894628296
0.5795924394271145
0.6654569491219983
0.5533852386993
0.7721335020973205
0.5591810563715103
0.5200753256789229
0.45438150702614466
0.6594182579151785
0.6452490968756716
0.6354985120489731
0.5842108187371192
0.49293407698665054
0.43278320295057054
0.3680251580901681
0.533097654723097
0.5170521884916421
0.3745433833502839
0.27149701920491454
0.3416925446420136
0.3752300650269004
0.5008776626618985
0.5600002169653986
0.7778833121098511
0.6798029044549808
1.4704292441876181
1.625197678886436
1.2876191573384508
1.3810412376566943
1.3204440070968606
1.1849540932635334
1.0640820074197122
0.7475804784421987
0.6413560589699028
0.7628794356400833
0.5334361652083353
0.8898601219310254
0.7285923345838731
0.509059558655127
0.26067191044877774
0.486953394408507
0.46793658088325246
0.6697757603285093
0.6824533704259679
0.45716755793736213
0.510741476181288
0.5966210942330515
0.6552230114164934
0.617296702148725
0.48234839967094556
0.35528284239026975
0.2590516154627877
0.29079113185659977
0.31478685262461864
0.4424469206565281
0.47703629328580394
0.4567619747021347
0.49585219208519454
0.5470002195032176
0.5284811531730002
0.5437740639251154
0.41329882907672993
0.3760824832315744
0.38026106389413006
0.4480281131693347
0.35753203119962074
0.4390193646542511
0.5461287349256323
0.448902771368613
0.4731957693673197
0.6977087752652992
0.8460477676144207
1.2109648577683534
0.9436370619372666
0.8434773355267292
0.7448368244508159
0.8227228756504495
0.7898231408971383
1.6723103791658946
1.4837165258564475
1.4140331053740995
1.470614084511366
1.6726313087504652
1.4848803251265115
1.600786378247781
1.3986156806191061
1.3901703526795286
1.244721419108202
1.377348849271234
1.1115619924759605
1.176818677548983
0.9770057211545784
0.9295063225502896
0.8281892768959759
1.1109949350202284
1.1761466680283712
1.3045587883322862
1.2963951205491029
1.2109945988597277
1.384266377566147
1.413161015429816
1.158835029509119
0.8782558008812882
1.2044453261285886
1.304445577756093
1.2296146754360107
1.4513770803176371
0.9308718447900506
1.2385030631019376
1.5319537439688926
1.0693631909116834
0.9441766701930407
0.9633349551575412
0.9666883926217518
1.0664364147640748
1.059031854853959
0.7311064611304917
0.7725120004926858
0.9469234547527154
0.9097787869075872
0.9996516241919023
1.0430338689879455
1.1588695547878578
0.8772040830132547
1.2792334503019154
1.1053875527461352
0.9217530289562517
1.0575994355361276
1.0267302907189975
1.071528937834334
1.1695301702085226
1.0054239552947979
0.8594005859155089
1.2890776762076888
1.1365100645453412
1.028720771829127
0.9946915115559043
1.149136952567668
1.1671772755084187
1.185401156301445
1.1211141634705795
1.1886683265198017
1.1695301702085226
1.0054239552947979
1.0910894511799623
1.6026490966589055
1.2068748904047122
0.9562014065574574
1.0057712300036323
1.1933482802939324
1.2370383221832921
1.178168878988284
1.2273427206503902
1.0795833614360553
1.13922611063186
1.1420155758849784
1.1511001268667787
1.304445577756093
1.4802821366153638
1.444769836459499
1.4589257833474902
1.0910531052331225
1.411095043394867
1.3518943509409036
1.3661517503536678
1.3661517503536675
1.3988742123914857
0.9181553991582684
0.667844347854878
0.459324959091485
0.23596429267628471
0.1624178269000353
0.16481769281522182
0.13653328798151196
0.1367324015564325
0.1402860853288882
0.18215241923827435
0.20786129536958034
0.2250572687285958
0.19557305048898585
0.12103218144808096
0.15202735104898069
0.15477286234721915
0.24584168386529506
0.5369388763098641
0.40047999103855314
0.42598225949900304
0.4191888749908094
0.3444320285534141
0.29942605278047907
0.22493118695701422
0.23700546375861767
0.2315986138095004
0.20464122275024188
0.22853426120525147
0.2580003789081708
0.2067573331753007
0.19339410299451545
0.21053457150777605
0.21560224130952418
0.15803971289171362
0.21402892889861477
0.22048390278165694
0.19653292640334105
0.26988284405963153
0.27516001976355836
0.2873586390687924
0.3379330814386103
0.2590516154627877
0.2632097534037503
0.35352629946684594
0.26200495851995353
0.22960091459521806
0.2236050938873424
0.2278687316233074
0.2114505901302948
0.2026115434310122
0.1914053797916257
0.19396215052419677
0.17844443107683983
0.19104005931882945
0.17825457928786542
0.15506013943206265
0.20879185341141276
0.19995171681612464
0.22174385440210584
0.35651850534425783
0.38700957208869136
0.5607841654225495
0.6635423537213848
0.5995386082734406
0.387251431180037
0.20244250057942964
0.17809264328602867
0.13183450519493234
0.09268446332188757
0.092536925693488
0.09763804058929718
0.09989721452106005
0.0987588142909554
0.1005404760759722
0.09451054704946339
0.16049266536731696
0.18720470580122303
0.22187226778545663
0.1864907863152658
0.22892563147131476
0.25992246129224444
0.31240044226200975
0.38713242004366066
0.29025322306503176
0.2350279969874747
0.24597842534708406
0.2615720063127045
0.2124910540061851
0.27325968396527167
0.2663032363836998
0.28746263916375997
0.24393073476078717
0.2195477417570825
0.23855111311964347
0.48563387727465
0.5546761358821335
0.6237153086963099
0.808001228894692
0.6696457328095838
0.8763535905173694
0.863540187344294
0.8918785063429355
0.6952958260600626
0.4809955673819384
0.38969502666772937
1.0545881336611298
1.1312108793705582
0.9901134585919522
0.6904204579326024
0.6818626472873098
0.6950852255458784
0.7663359401617239
0.6530823165310241
0.6309805939984204
0.6611905642009199
0.8160213194513014
0.9009576913520112
0.8315426560647086
0.936860139672736
0.9972621335128385
0.7210734590111478
0.5967295827202905
0.5687595388530884
0.67998171026731
0.5319132450865452
0.4896522490277872
0.4981021004783535
0.5208134293543779
0.5905165771368731
0.5338813306860388
0.5188588882576849
0.5121035891714785
0.46843116140086555
0.44630483493201895
0.5315352199584058
0.6647045268109303
0.6663241316318305
0.6191425584437998
0.5334353996395628
0.5453864144944881
0.4370575761315704
0.3529179464200686
0.3378024977468519
0.5369898602329435
0.4609620076245994
0.4341835987061114
0.43278320295057054
0.37717173070482746
0.533097654723097
0.5170521884916421
0.3745433833502839
0.27149701920491454
0.3416925446420136
0.3752300650269004
0.5008776626618985
0.5600002169653986
0.8200079238206625
1.0303754878441018
1.5774191381657134
1.104979493795521
0.33719225215810006
0.34107851671043576
0.4933728580442592
0.5764001107155114
0.3127548493206867
0.40117499639944576
0.26067191044877774
0.483778067132761
0.48814914189710334
0.4966993534684597
0.34988092611557553
0.31629007931413905
0.3084509022732604
0.2546341960962874
0.24637848999376313
0.24443635932973193
0.31164743381542453
0.3062615725210084
0.23222485127320544
0.3647108876963948
0.31478685262461864
0.3700964263114753
0.4349365106781398
0.482220267069507
0.5615103839419623
0.4932596565144953
0.7285479463306858
0.7189856000279917
0.6566283966384717
0.5856068532862866
0.5998382688247685
0.6559553508009337
0.9115774222901831
1.048096327594851
0.9445134797864917
0.6954538449038173
0.6139001468168713
0.8575222533889921
0.9046092971360317
0.7272660065961087
0.8234703461259781
0.8154834993781402
0.6371064899268054
0.9907522667096478
1.149136952567668
1.0742334501247484
1.1033415406437619
0.932843202600423
0.6187030854736775
0.9077652481959502
0.9404008408634039
1.0917275358003358
1.1484792238794854
1.0764659344625387
1.139223927482029
1.235616328045529
1.198850621045017
1.147718584944699
0.96902691960331
0.9618075102801743
0.9295063225502896
1.467367063723566
1.4140970120769738
1.2290366012295566
1.5226253430699626
1.5297221373792464
1.2497468191453531
1.287887853791611
1.2779566641407603
1.0296644802681587
1.0927375084926076
1.3069807012145083
1.013081457233191
0.9738650377164161
0.9971617648805524
0.8954954288483974
1.0430338689879455
1.03702205176711
0.9709832153866308
1.1232454134443426
1.3602557629135044
1.318517826835757
1.3197776414195619
1.3068937578997906
1.239233252389069
1.1774715190861877
1.2034999957135601
0.9124394225719161
0.9006922129240779
1.069259943052457
1.124447301523786
1.1903356218011982
1.3288875374806717
1.3346479720245303
1.082562405103468
0.8612772311796669
1.1117413302461574
0.845245205239758
1.1761466680283703
1.0211232828117485
1.4824986333222028
1.3292105885871275
1.1184656748630672
1.4277670862450624
1.2491080041066402
1.1529633613210426
1.0579899647790747
1.0579899647790747
1.0665915324714033
0.7433187948772875
0.9899755313787247
0.9687295355859378
1.2467149280830088
1.0210809261184333
0.7963708311289044
1.0704280750236308
1.1694937281174995
1.2285377784213114
1.018266266034841
0.6757457582921298
0.8454548719992707
1.1871234249263602
1.5138395059550946
1.42841694638993
1.4444696494056548
1.2746598835646137
0.9595930899102109
1.1103720403611994
1.174632788645105
1.0958321704195868
1.0387465571141428
0.9687295355859367
0.9899755313787238
1.2642198190467346
1.028116556256944
1.0209090623666681
0.9279142962721207
0.8980265101338751
0.5867399673575279
0.6283499277288759
0.528107119995505
0.37145323783785006
0.1880756263348799
0.1624178269000353
0.11826697066858716
0.13611544511406748
0.1693409390659875
0.17297774717961065
0.18847195675368505
0.21131960303660569
0.20235119546099042
0.22382342755612297
0.23263319322996764
0.15835812531737725
0.15052604417143103
0.29032916896060224
0.31135228123208253
0.15843271784402826
0.20384108785527907
0.24174078848578023
0.22010420668938446
0.18870299270998867
0.16477075126200008
0.1700136748426207
0.1896743984245314
0.22637088015226708
0.156334215866869
0.1542536929482142
0.17844443107683983
0.19104005931882945
0.18195651777856853
0.15542902750982723
0.15580677354249442
0.15714465644277836
0.20670060808625315
0.20722000698042065
0.27288418840870987
0.24047234655710123
0.2634729450468761
0.32869177642491465
0.2126262638531734
0.197711290951863
0.2016916438176794
0.16963343434377962
0.14841914594722
0.20731866019480902
0.14103383209759854
0.14326295730643396
0.22174385440210584
0.22556431348684186
0.2212138801975217
0.20748097505202107
0.17007635774109614
0.16024482830164155
0.2107341213848402
0.2956871240245025
0.42888832968698226
0.6701075292888112
0.5827853983787028
0.36995453965739683
0.23640632651486773
0.13926910735110976
0.16381024346981396
0.09586946836698151
0.09449153017160483
0.09895742714895707
0.09453798514900139
0.09451054704946339
0.0910479105490338
0.11283114064848597
0.13099845383536657
0.16160668013270532
0.17314085908624
0.19565288379569287
0.24182673036908206
0.29873422796652227
0.26339135885972914
0.2775619888150788
0.3255729637250215
0.24713503699618397
0.2153024816721029
0.19907900485072252
0.2693372721792777
0.1376999885450675
0.10167229009027628
0.2693623979251659
0.30677104086561974
0.4882028638525614
0.6225268688817437
0.7297270821167146
0.6723554783795169
0.734407205899135
0.7628389125452546
0.7157648241883019
0.7386681901423898
0.8195318164553611
0.7405898618869229
0.8820194372263059
0.9449602421775769
1.0693475324925514
0.7347099055674418
0.7403036517635891
0.5330197853491114
0.4372222407425085
0.7940439631846989
0.8042871106941789
0.793264679383809
0.7512042925789102
0.4351198662997315
0.4600237902071273
0.516629492171897
0.6281205364734652
0.3680251580901681
0.5937377155835862
0.667637356856541
0.5256288799029495
0.4925135122511389
0.47030023083887085
0.5438427195490542
0.5409666442244759
0.5120858303792049
0.4267098402557779
0.42689656224898515
0.4161565793141598
0.7428218306431463
0.6354985120489731
0.5096447687860289
0.5300977491235718
0.5687595388530884
0.5869672708837481
0.5732538908661204
0.6019635934338964
0.3821258626600098
0.44764468817586106
0.683459537212689
0.6592534970771957
0.886276932845158
0.9734378714330435
0.5614505714570152
0.6684379851898791
0.6689353963822731
0.8813749931540003
0.8106052230437434
0.9845958159279768
1.0326496438921522
0.9858979338070311
0.9344412938037503
0.8522256372760947
0.7214188575948379
0.6825061967504589
0.9008927090685241
0.9312668624279526
0.7615119723781245
0.6913158775077998
0.48550245076373505
0.4934647681066103
0.5632474028571327
0.606293281705956
0.6248557459995405
0.49069387308848067
0.3375744101565555
0.47213005697852106
0.4831882194551399
0.43079504768978977
0.38161358991127914
0.4249135410426086
0.5282186457370858
0.3236178423487901
0.32058350239224276
0.37876622325701964
0.3760106740231841
0.35600870632746345
0.33397936550374974
0.31527665768267754
0.42009097030667153
0.34135669641282623
0.32978058359816
0.3104506393006696
0.3288004371668438
0.5663791071424427
0.5713166158305854
0.583562284899286
0.5915420903958831
0.6138300531131086
0.5329725891019781
0.5730528597587741
0.7380102527495266
0.6825686051612461
0.5276474397773011
0.5757139935984177
0.5873143022986693
0.659075877027529
0.6690255675416493
0.9331011791529803
0.8069037373035904
0.6710964057118852
0.9729917067894359
1.2413040965782944
1.1120431871658794
1.0694948192294957
1.17198325556973
0.7291478816594607
0.6748829817425755
1.1103720403611994
1.0727445453832267
1.0353287899158015
1.095832170419587
0.9687295355859367
0.9899755313787238
1.0603345723991642
0.8931292773525595
1.3277117583675506
1.4496728201536453
1.0210809261184333
0.7963708311289044
0.7910866502221442
1.0319775434980605
1.0319775434980607
1.0319775434980607
0.9759000729485331
0.9787896160909538
0.9428090415820638
1.0423532474402877
0.90272141911616
1.2022543904994778
0.9581108830867314
0.918318125732764
0.9113236456058434
0.9007926074164921
0.939103414981689
0.9445134797864917
0.8678029123171629
0.8071063316027834
0.7897956531538983
0.8900142005452858
0.9112586859184632
0.9453358703644239
0.9114271021489059
0.801584433287462
0.9685092681011417
0.9433494750327418
1.0417409366636998
1.0417409366636998
0.9319946909293834
0.6740744125690901
0.8335687134389359
1.0965719085678938
1.0816440605328472
0.9744058483530329
0.8266739198009736
0.8252383115225638
0.8880023217254935
0.7097527165258498
0.7619854716569379
0.8556236035955644
1.0089755066396975
1.090763481851096
1.1782022250005801
0.9096359225800337
1.4065259467477195e-15
2.9822716984172073e-15
1.0229708192341311
1.051335353734579
1.2113524907365387
1.2491080041066402
1.135068688862671
0.8543114573830639
0.942573564852688
1.0566494120244645
1.02364952050313
0.8847883226264229
0.9115449095255339
1.018266266034841
0.8266739198009736
0.6740744125690901
0.8335687134389359
1.0965719085678938
1.4815319297855718
1.0982972693964295
1.5582745677661687
1.6572580762103313
1.6338492425455229
1.1158291004905165
1.0974911338288451
1.471530515230974
1.5680687529121333
1.255863779664599
0.850006248325882
0.37817740374060826
0.21237989991322384
0.1732025516439255
0.16054581948040908
0.15408193202903558
0.1595429344140987
0.20836495154066578
0.21027817284224873
0.22448295546950528
0.23331855029659512
0.2244124625222334
0.15376971339063325
0.19107399059672894
0.30411104136346817
0.4060428767741212
0.33633030636384703
0.3182003465686367
0.284783803506084
0.2110125259561473
0.2004665413865846
0.09219721164626632
0.15573536004383515
0.1900722829979969
0.21975049728310111
0.30567672400718826
0.22847045067288357
0.22233065875556451
0.22552214903349788
0.22758052820081914
0.1752769948283465
0.15028418035692723
0.152118441272023
0.19778159279693847
0.19911315947887545
0.19411827000198856
0.257014759598463
0.25183986913451234
0.26310011620797075
0.24614208627826475
0.20923542776033635
0.12798380001017337
0.10587664877717114
0.127263257444825
0.1652393849004398
0.18782730605709377
0.20609978679298413
0.17178438388563982
0.14281021547521475
0.14409275888054238
0.14447918104076488
0.09192649135098477
0.16005650261486784
0.23993767497428053
0.5444118989289345
0.5007048057108853
0.3140853274634745
0.24099198621099138
0.17931329136783952
0.15678799428088236
0.14414592908375454
0.1284154802615813
0.13970923947345829
0.1339049142001028
0.12062791950561962
0.13383646141837607
0.09206718569729529
0.10914737748502423
0.09297957310119583
0.11375107798915576
0.11928512639283162
0.14312090583388676
0.3514479538527661
0.3293080804598748
0.16240325104874756
0.25608473174126456
0.2153024816721029
0.2129761516770024
0.2051368180316342
0.2325575530004181
0.25795647999155835
0.24631559354347385
0.269034779662298
0.3882177243363889
0.4802753326322791
0.535663855400943
0.6066937379060967
0.7424151683558746
1.0085291456583216
0.9124394225719162
1.106148565686144
0.9976535708071782
0.9681648358250983
0.9343110155405812
1.1092856763978338
1.0536890897157416
0.9022034208330326
0.776527889961815
0.6585341082701933
0.7919124786846633
1.0327145944629408
1.0327145944629408
0.894982822704524
0.7492558605808953
0.7491408758598412
0.9157552831957241
0.8989909720624216
0.8931653872684864
0.7271551362095076
0.5183637912805396
0.664686916586648
0.4830354639625612
0.4946525628379351
0.4911028358432049
0.6227159977837098
0.40822776629406266
0.4370575761315704
0.5069230531726724
0.5175713374171443
0.43492906582276863
0.3515489988220252
0.2908252723176263
0.38200953733582016
0.4416108308118921
0.5175713374171443
0.43492906582276863
0.3515489988220252
0.2908252723176263
0.4405375472643658
0.6697813246245902
0.7386681901423898
0.8195318164553611
0.7405898618869229
0.8820194372263059
1.0926268182318857
1.1714257646056359
1.0851988683425717
0.9680898804264835
0.5645755050977111
0.8050346148769694
1.1301654305613724
1.4944815167489023
1.2826565505951755
1.02364952050313
0.9424878477382258
1.1907828865204844
1.4191441807485194
1.2620777581682951
1.2360142575934334
1.2657900673073512
1.2290366012295568
1.4454516858823732
1.2712115845675298
0.5949904245115207
0.5921945745659074
0.5505685095761366
0.47032410909697625
0.37876622325701964
0.45363733675563306
0.2863860915519932
0.3331553232581988
0.33852817560487064
0.3650871912857081
0.37783042509628195
0.35915917914259865
0.2883036969234349
0.3421961165419242
0.3739994360996333
0.4621556848913629
0.5569934337089684
0.4051188531008136
0.4185058443464626
0.429451617826277
0.5576477334756972
0.603018607353903
0.640235586159025
0.6120809142045769
0.6916871295843078
0.5151688714543532
0.5177434287794203
0.6876136400255495
0.6949997611849668
0.6504358330307202
0.6915367248844896
0.7761409084626373
0.8807725719879234
0.9323697850216065
0.8504750204718196
0.513648766459343
0.40220439252040896
0.47086880577420415
0.6849126356689695
0.6690255675416493
0.7690050618005777
0.8510526049326246
0.7638477212512189
0.8407963459421216
0.7476887284044161
0.6023494777563104
0.8894971388851595
1.4315902496472177
1.326938231124261
1.0090470917805896
1.2444384463756824
1.15702576237394
1.0417409366636998
1.0417409366636998
1.0090746108379895
0.587220219514704
1.1683345288624842
1.1496504523240498
0.9133468471395401
1.2046442507020074
0.6841687805371558
0.841439877596115
0.8818454815452472
0.9112586859184632
0.9453358703644239
0.8625414538355903
0.8192089370091208
1.0765005099706055
0.8185337540602802
1.0989224058173164
1.0412258819949265
1.1900484025484193
1.190048402548419
1.2309149097933274
1.1995812684406448
1.2529819151520123
0.9825096993556726
1.1185056278825498
0.9517923673070636
0.6841687805371558
1.057227956658771
1.2229401996889377
1.406586759916895
1.262836246703528
1.056792308521165
1.2473728650251457
1.476197065343034
1.5208827183587907
1.379002415270671
0.9669163467431945
0.7178721913788463
0.8815487313766346
0.884684356386814
1.1492008588660494
1.0246140288488548
1.133028963677663
0.5433487534750939
0.8999988678858439
0.9022964837485519
0.7248587294046298
0.8390637046888361
1.0387465571141428
1.002371298218311
1.0210809261184342
1.0527661938956956
0.8438999445764022
1.1553595763872349
0.7516933982505547
0.6888135360002462
0.665719102162711
0.7883890477560358
1.0127393670836664
1.0421744073946677
1.052082588588528
0.6990748682950232
0.8257379398287735
0.7721309041189858
1.6327205073859685
1.3426002026577109
1.2924820386112856
1.1584187213432977
1.2212367022106205
1.3180092827130117
1.2206945054292038
0.9693747085046817
1.0314388656647009
1.30848054636415
1.3724312200203208
1.143818392284804
1.2656488663641525
1.1199947310145617
1.3928811907015728
1.179864456816814
1.4805413007270216
0.7342011348433776
0.3349155189354618
0.15250396694260995
0.20053794872647754
0.21519431540415113
0.19277606468564673
0.21365472033876856
0.2579262189923768
0.3038099544479001
0.3579180692459638
0.3257805404399597
0.15594402587335904
0.16678663913854844
0.1759821524956923
0.4462553873223071
0.3873774335732538
0.23222485127320544
0.25499376336768065
0.21737637970608023
0.20481540985406418
0.20492374219178658
0.19055913970441649
0.1062714978238774
0.19125839166968164
0.2149585082569062
0.23112055326398445
0.22209292770994718
0.25733138318760884
0.21502789611118336
0.2577309656840745
0.2717652005252468
0.24797357768210493
0.3004001579375315
0.2548568663787728
0.3624445125103747
0.3435794351502819
0.24579864629654316
0.24365013933923418
0.18079356517021122
0.17172508039484702
0.14447918104076488
0.18727919420339076
0.16535854734135202
0.15388755515837976
0.14488200490216455
0.13165775424731443
0.1278676532475236
0.15190349962607774
0.16005650261486784
0.23993767497428053
0.3099995431273366
0.41198474720890516
0.4323895122645743
0.3249276219192805
0.23753237220405085
0.15538634980737487
0.11861648528053728
0.0759751132608987
0.08683991796560485
0.09449153017160483
0.09895742714895707
0.09453798514900139
0.0910479105490338
0.10563579650659666
0.11283114064848597
0.13099845383536657
0.1524913116858653
0.16946722882424733
0.20282305497975708
0.21232292559318788
0.267600048732775
0.26306735784586593
0.22570285735422585
0.2367013658297102
0.24850421666514216
0.1804123846803988
0.14178222967182902
0.1419854739221248
0.18400494947525822
0.16093224284101956
0.16454958919161072
0.2126842707148777
0.3525733370749182
0.782119332045341
0.7501288270501718
0.7484891517482631
0.8409633005378964
1.1811020173757383
0.8561290839773464
1.1444235399390827
1.0815956037826306
1.2567110096249807
0.9787673692869164
0.7661899088087517
0.5931935024112
0.5438427195490542
0.6384830764991095
0.5958362181056834
0.58566487949197
0.886628947604168
1.0018746238131773
0.8695150752799622
0.7838286815001326
0.7832518843776789
0.729464820127332
0.47572508604325675
0.5482339524294442
0.6244361901978668
0.6983072348126047
0.5468271627946081
0.48587301331791954
0.5700714262583917
0.5338813306860388
0.5559127456768487
0.5573365386713481
0.6267966914032822
0.5050528791317239
0.6106109793732957
0.7370435441113323
0.5068610513220663
0.37536173957774144
0.39561447879286044
0.3288353335718628
0.34288208482995686
0.40320729394582294
0.41055097566171117
0.5235916335716839
0.490841471655757
0.4917828530152384
0.49788169142630256
0.5217735706011074
0.5675891851012457
0.5113705820498338
0.4944366978094839
0.6352168734501119
0.7539840218658572
0.539963107639784
0.8533236081210358
0.788832698862594
0.7714793398907823
1.4704292441876181
1.312435917779423
0.921111479425679
0.7683962008551718
1.292030324776639
1.1849540932635334
1.0640820074197122
0.7475804784421987
0.617264575241732
0.5265653457266701
0.5188182084183396
0.5510978089197432
0.628967061658064
0.7356260058082265
0.547980537396118
0.6588091495118992
0.536562758954396
0.4618270321517742
0.4168748626996315
0.3566840264520805
0.38798265544497806
0.4178059429508127
0.38177895236215625
0.40888924232530865
0.3700964263114753
0.4349365106781398
0.38735018060617404
0.4099992633012465
0.4026529940576378
0.46793658088325246
0.4466080971198887
0.44145672059607516
0.38776011765222446
0.3228670183001241
0.4051129536336322
0.4996355077917669
0.40941122559323107
0.43109923532886074
0.48979872806126123
0.8219011612353013
0.7787302580030505
0.8918141773618501
0.9331011791529803
0.8069037373035904
0.6710964057118852
0.9729917067894359
1.4201273062726172
1.4024112414433707
1.6648661009638874
1.5578612580658795
0.9212136299880669
0.7699025358121258
0.8718872430041014
0.7245013613085165
0.7318302195732964
0.27420691670086733
0.5106893849563726
0.5422877244969917
0.5995501729828981
0.7323818038839122
0.9811703284369419
1.0850159005334286
1.1612484344652878
0.9743424946209529
2.0033400331548394
1.8561351874004006
0.8030637852172935
1.1053157791257517
1.0278830750048027
0.93245336692349
0.8829110573353957
1.0709788300887995
0.95502635204114
0.9249009296611418
0.5433487534750939
0.8963866631776618
0.7590566122719831
0.8715725545566552
0.7785897156631177
0.6408398586450157
0.6217103581309492
0.6629315693498415
0.6948094591029204
0.8757811437055206
0.8565229083102096
0.4743137088274668
0.5238385896512546
0.5289157134405946
0.6082373298226225
0.7989815347784184
0.8543923663697123
0.6727192750542692
0.7675689746833113
0.7615135874874358
0.8863412854932406
1.1391727052162401
0.90791019848664
0.850951138717511
0.835005430369284
0.8864778633158896
1.063389817813666
0.9862161938797062
1.0927375084926076
1.0867537466156634
0.7979661845474001
0.8111071056538125
1.1059767368995626
1.0878565864408427
1.0816440605328472
0.9587390550590845
0.744890620737781
0.587220219514704
0.844251255245414
1.3502111171312283
1.0429682862934966
0.9279142962721207
1.3871955766529953
1.4576324119178545
0.9882801635494228
1.1478326172483064
1.1270394425762427
1.5166056986743812
1.2959860355095663
1.1452954833974367
1.0978218643982618
1.1786235656162165
1.0619237651380187
0.9627064410349244
0.9785890423153953
1.2534538264257935
1.31317295523445
1.3819980615931622
1.1118258274768458
1.2255366826849832
1.2678503484029142
1.1184003097150577
1.1181008326911637
0.8797479141802127
0.6993405277736331
0.7036038880753133
0.5963659648720452
0.20355918020660846
0.16478711146216923
0.13903403306467121
0.15189910766062104
0.16474024542452526
0.18962196061756856
0.21854459604905363
0.20196294486528485
0.16466016856850466
0.19925572334872174
0.25054311201883345
0.28054399158828147
0.5508827739957306
0.4774733622794242
0.3900009669670314
0.2893758227604233
0.24500351742055224
0.20366848777184346
0.16720311097718676
0.14841914594722
0.21493948611886485
0.2852024519814372
0.37038533215620284
0.5389589022698317
0.681269219565803
0.887300041458078
0.36026158598567654
0.17418666651671294
0.1787128504678775
0.21229540829020915
0.2090208116564869
0.088547347483666
0.25219442658985214
0.4112550592330782
0.6303138831353814
0.9920030045529323
1.1152997366291082
1.1873651057013328
1.1228236983976063
1.2303821904539471
0.8993695638994672
0.5259779136850059
0.7880095297639352
0.9967056693185744
1.0910894511799623
1.2235636516279849
1.2595505946521262
0.9893224926890153
1.0141078647319264
0.8935518260472464
0.8562359237673459
0.8348297146261117
0.6990748682950232
0.6371064899268054
0.7184680886171325
0.796136188351871
0.8094788981611044
1.200327229230955
0.9872878609957165
0.6957062252699208
0.9149833314239461
1.0275354635104033
0.9687201323153397
0.9492226821772304
0.8540655939412902
0.8577119572983757
0.7871294178444729
0.8231318302635301
1.1735992009161786
0.7189856000279917
0.6789845812362514
0.5856068532862866
0.5998382688247685
0.6948094591029204
1.1517584002559975
1.185607529032418
1.061391490040677
1.0056111143114048
0.8281892768959759
1.142402335760921
1.1761466680283712
1.167878004449715
0.8643445329178029
0.7989022839906998
0.8976804331511363
0.8935518260472464
0.8935518260472464
0.8348297146261117
0.9249061064148442
0.8913715646127871
0.9842236002261724
1.1514398277919742
1.197769764908968
1.2822242282879166
1.2648049261933982
1.0864951247330656
1.3246677355330743
1.3694978267524298
0.8802503090457489
0.6271096490888853
0.6904479782615704
0.7222379410144347
0.6385807231680597
0.6244862646268398
0.4473277334092194
0.5208134293543779
0.5905165771368731
0.5867399673575279
0.8015842492482274
0.6917308153586677
0.6076012043304563
0.5859832976073519
0.6788428295755256
0.6757163500113765
0.6585433971791277
0.6222012001847457
0.6739671708679067
0.4060407520467487
0.43217999965366344
0.4690845929846313
0.4686291053603733
0.4120179817094247
0.4347062209343049
0.44630483493201895
0.5525314100895096
0.548934590817508
0.5409666442244759
0.6709081802539311
0.467273748308959
0.6338474599186816
0.6245312000871853
0.6230863869929547
0.5584885995545759
0.7010267510592222
0.6455299148574288
1.0376346034259978
1.2706546747328344
1.292815881620086
1.5176979050545385
1.6365218663365317
1.6578181493882693
1.318517826835757
1.3197776414195619
1.3739700410512312
0.9833168175322726
0.8394581101214158
0.7779161704030728
0.8308718590725344
1.3083452090290444
0.9100315103865805
0.8243515696240141
0.7476887284044161
0.9283090005180481
0.7876603995747158
0.843439537772533
0.7940439631846994
0.803285199706463
1.0135385634860572
1.0803454492720472
0.7303625567541754
0.8042938469334394
0.6337102405939931
0.811547514012186
0.9954055382661852
0.9687201323153397
0.9492226821772304
0.8540655939412902
0.8999988678858439
0.8682614769715231
1.5585526177312958
1.235270202663449
1.5482839933228418
1.4091336404618753
1.0526803729252214
1.415585987265296
1.2519769540440326
0.8736984774805846
1.5175924481594643
1.5211996665294116
1.4670821246244814
1.4543403267605244
1.3456080263358003
1.0295269224422208
1.3669243743925619
1.3142882943059044
1.264837723063203
1.1744112967237506
1.2225410752975685
1.1250197247833875
1.1136648638544948
1.224641533249555
1.3130638749459744
1.0526803729252214
1.528969700301415
1.2084906510014573
1.0829639916264302
1.1680284442396343
0.7358602010000529
1.1342126708997464
1.2248533451240655
1.1828228651172519
1.1206447323472344
1.0765005099706044
0.801584433287462
0.5337654427790981
0.5138078257334361
1.1065429178507378
1.1325568706804543
1.0114596114911272
0.7136564326788254
0.9466642925107739
1.0564251142772374
0.7600457496014982
0.9424048730011778
1.1922997268634998
0.901074651732618
0.7897956531538983
0.9130650215809255
0.9097787869075872
0.7443487347654256
0.9872878609957165
0.7969211184069066
1.0210809261184342
1.1721446833678346
1.1827378984603794
1.1450596049993707
1.063425097976096
0.8872682023762901
0.9124394225719162
0.7696497888539048
0.7724794499935166
0.5958727877772545
0.8245956759126739
1.0010427226947773
0.9733206077415222
0.8906445814261306
0.7480335951281006
0.9797133310087967
1.053560655860397
0.7919064379621465
0.8963866631776618
0.7590566122719831
0.8562915336443742
0.7785897156631177
0.5276474397773011
0.597643387803864
0.7780128749244783
0.8406718731926742
1.2293039538986468
1.513017150709613
1.4386265253821282
1.2870990738837824
1.8217015867277893
1.9536204035461835
1.883545881253639
1.8550237289677782
1.741337744571522
1.2725502468058265
1.0654368279367992
1.1462171811126194
1.2686845720753794
0.8278070618688625
0.9176606764725226
0.8873153032316805
1.1057917593898308
1.1312605812013141
0.8438999445764022
0.9115449095255339
1.000599222866888
0.7729424050211617
0.8680799241931657
0.9115774222901831
1.0251188903594346
0.876309954282793
1.23642673433925
1.301339405448918
1.4548869081943447
1.4822585135278208
1.7078251276599332
1.3039133330610269
0.9384363599181963
0.9273782937774588
0.7390676237349612
0.2643186149654016
0.07007240054852211
0.07123101761917114
0.10373390425074198
0.1478047031656439
0.16953702739499663
0.18352244058088887
0.19857281496711718
0.17297230912211
0.1704947882837401
0.11969539627292043
0.12324541203087051
0.19778679857745982
0.44031842244949126
0.42977974717939593
0.4308633648952373
0.3227636795563431
0.2893349143652915
0.31634559205724844
0.27447649219409737
0.3119943490359828
0.31368246736994065
0.27480853425196244
0.32963489724897643
0.4609843402589373
0.3731835367377959
0.3384468531118152
0.2827403031930434
0.18797528507737
0.24551125176788494
0.11742796290975095
0.2778241918081659
0.27556246348359903
0.27420447364194833
0.2863860915519932
0.3331553232581988
0.3236178423487901
0.32058350239224276
0.43578247613695137
0.40245653581322766
0.2549723954623514
0.3468275821004407
0.49102684941307
0.5980413080959729
0.6027129156852608
0.6916514046742225
0.5205578959256122
0.9882218516260306
0.7589738120475011
0.630907771005458
1.133687475889898
1.7064044003771248
1.1149812755751378
0.6514797507857121
0.4863279291536146
0.31835138450893874
0.34951373598640906
0.3278795584080471
0.38613353182756305
0.5883863667168766
0.7246480603656624
0.5190859567530685
0.23640632651486773
0.138407782277791
0.12389628411264668
0.12603280405190087
0.10730188574117687
0.13660340402829033
0.13779041463270167
0.11045303973324119
0.1515259728756895
0.1940359760203728
0.3059942052215409
0.44224766198887744
0.48672010870979576
0.4712817338704484
0.7338400132566384
0.9790686237835964
1.1237169156328255
0.9223287278812907
0.9059982816908394
1.079426592271679
1.27906175242433
1.3135068986468297
1.5146386595428756
1.2310258430347978
0.9167310277323265
1.3764301000593253
1.1067922600415567
1.2909223567131358
1.37808906472108
1.2084906510014573
0.9337467334980543
1.233268820240287
1.0208839366234066
1.1525070271964166
1.3183787035240258
1.255926964885486
1.145834330936951
0.8516781106828961
0.8024295777896387
0.8818588074846783
0.9355654333995853
1.0925358622499879
1.1170169323001646
1.0778789503142057
1.1732409547293339
1.0179833880725462
0.9692026998083884
0.9738650377164145
1.0448184727336263
1.204773559612199
1.3441401095669563
1.2637069354450883
1.1918548505483912
1.0799254262072882
0.72293816971104
1.2263652132699927
1.4260521272061317
1.2309779676084085
1.3427374130922156
1.2350260363191028
1.1904159758581343
1.3397761688729697
1.3397761688729697
1.1850719780985628
0.907347422332766
0.939542673547221
0.7940439631846988
0.9325048082403122
0.8705327692032983
0.6385807231680597
0.6244862646268398
0.5321843571970283
0.37038291381289773
0.8792343012421633
0.9298598897960632
0.6248531317803263
0.777654881197194
0.7600457496014982
0.6271096490888853
0.692238710204102
0.7317586983470885
0.8639228521115138
0.7738233072106635
0.5631436353188494
0.6132596491572146
1.1608784125289577
0.8849939953223025
0.9213969952865172
0.7412276550732652
1.2362598493940031
1.3627940211492473
1.3085647813799672
1.2296146754360107
1.4302851850731788
1.5043374878267972
1.4572621089105007
1.6396635655185172
1.6580735374404336
1.2192155209340494
0.8252383115225638
0.8880023217254935
1.152704817012224
1.1508341619204563
0.8935861516491186
0.741653072834536
0.7891863228613525
0.9100199484911189
0.9595930899102135
0.5941809669003123
0.618344044243765
0.7583118563116344
0.9065963785715914
1.0578659983525591
1.0151688602289062
0.8129916637553741
0.7071523089842275
0.4409762031626703
0.5449180828947022
0.7559708340960402
0.5706057582576005
0.9786024455588958
0.5323286388103144
0.666436588860132
0.6519156651558399
0.8100509907633038
0.8014258926069515
0.6560358193731566
0.649007008357747
0.5905380001826747
0.51583311135626
0.8913463843913934
0.9934562434591854
0.8204687059297051
0.972297572791022
0.7834607467435621
0.841439877596115
0.7990213078102509
1.0367882615605237
1.0842223400851725
1.171722718253612
1.0634827840252166
1.0705754551443782
1.211434166453744
1.0396209677166202
1.1740632973361096
0.8922773378360923
0.9597659974141075
1.1004888420649668
1.2678127825265784
1.2127496344261341
1.0211232828117485
1.0707174303999658
1.0593488967469975
1.0418259558591867
1.3445684107384126
1.194333423712546
1.1666362409175963
1.115481843808999
0.7969211184069066
1.0612895245769058
1.2344355883788147
1.1852220346491302
0.906732616679121
1.3764301000593253
0.9193571461982255
1.1452202728523533
1.166423687039609
0.9404008408634039
1.256249663124163
1.3656700186609467
1.3778374633225374
1.3701211304101184
1.698415551216894
1.2850992934698369
1.4224906501280707
1.5718745678774784
1.5662791358805797
1.5718745678774781
1.0137839079573847
0.8702421092926681
0.6950056679177274
0.9295732281597134
0.7799664749815846
0.9922655470326052
1.0961944249478177
1.565361915148238
1.6578301649133451
1.543682029598285
0.9457740462793316
1.1522647599208609
1.4726416775224465
1.5049946023276288
1.6367253663479955
1.2022279093261121
1.4670821246244814
1.363584904652752
1.664889862705391
1.152101851971294
1.1488675660464094
0.8497686807088538
1.1954608284130899
1.0627702687403076
1.0141078647319264
1.170566866884028
1.170566866884028
1.010765772743988
0.7801116139981192
0.8329533071872612
0.844251255245414
1.092842325404396
1.165480460095827
1.1401971205209784
1.0164258722673343
1.1463897441957451
1.1726858542726812
1.1403579898360092
1.2898141866862733
0.6127259215138573
0.49908449742315464
0.8250748382821851
0.8495271720647685
1.4567069305356428
1.5234172122006013
1.1819810747144015
1.0190245255999963
1.1306162514430314
1.2735763560894744
1.120354060875836
0.8497686807088538
1.240636805261537
1.084301146017875
1.1850719780985628
1.1618002122954931
0.9582865893293311
0.6950056679177274
0.9295732281597134
1.63143221211909
1.5627656651324269
1.3940661908554526
1.1339596810361878
1.1893844520595431
1.4314151298299778
2.2210178905915345
1.4992137019426701
1.0576517379392776
0.9873746752412823
0.746349222238642
0.6719486099226736
0.5141846029607436
0.5560191380629642
0.3098863854984405
0.07007240054852211
0.07123101761917114
0.0824106482585231
0.0873214918429129
0.09108317107560794
0.09855674414040794
0.14855234160262776
0.17272840579874688
0.1704947882837401
0.11969539627292043
0.12324541203087051
0.13300814219338639
0.34860257277017404
0.26070828400534074
0.2977122143906781
0.2615855719885862
0.25719335478614475
0.24637848999376313
0.23481527418089146
0.2130936636765541
0.156334215866869
0.15953053838061027
0.22256735119165932
0.2504946829472917
0.2642370646191961
0.21462616853834166
0.24734529521225287
0.2574062774119994
0.26476892621416837
0.3810321737189945
0.38321037163831667
0.37682532076782904
0.3760824832315744
0.31738685724409754
0.29276584135696315
0.2687064296780167
0.26695502874006344
0.23979961557442836
0.205905259411201
0.16477075126200008
0.1700136748426207
0.18216924755658698
0.20352429075635242
0.20358471744030116
0.2262966547585656
0.22135575643778843
0.1387275332204791
0.14080644208785223
0.13165775424731443
0.1278676532475236
0.15190349962607774
0.23358841544918177
0.4277746687574251
0.6152086117016196
0.5147389297210077
0.44490411040315836
0.3357951406519405
0.27262672487427025
0.20820891004637526
0.1728519978543813
0.17605214313720963
0.1564082087496443
0.17472489276801206
0.1644276571945488
0.08088694409752636
0.08970030639951593
0.09753640719376501
0.09297957310119583
0.11375107798915576
0.11045303973324119
0.15936360952339412
0.17572384278396688
0.20719238089553785
0.2344636704107055
0.26773201508494904
0.1849353431780095
0.1980680216785983
0.23468685697526462
0.19380631201035026
0.19596465127407933
0.23233296474435397
0.2823838678574101
0.2889319014760921
0.275283672690082
0.26331234569847
0.31583767205272
0.41508686968322356
0.5400127875350668
0.7159987960131003
0.7414789404402193
0.623037379290166
0.8038973793864422
0.9381765301843602
0.7768523956394273
0.6635784215991354
0.5575450666013891
0.4864439431627244
0.8103281247076957
0.9006018700624037
1.2415543875179698
1.138315857980178
0.894982822704524
0.7918637108355545
0.8275492871240443
0.9097071956116881
0.9842345350862212
0.821842916816391
0.7271551362095076
0.40900794957934977
0.3387015124162349
0.4789647893612897
0.4683171009832631
0.5937377155835862
0.5111191349168025
0.5035928784519704
0.5439234163737242
0.6895982101689531
0.7007790330361293
0.6852695414062288
0.7954733868898275
0.6551759009509164
0.7644559950719866
0.8107322220010126
0.9464272678215186
0.8819183365592352
0.8303994984791663
0.5822536054428152
0.37038291381289773
0.7537180531941466
0.7671184471152411
0.5562486743904731
0.5858451186948298
0.8356487915490712
0.6866238123495272
0.7619743611291594
0.8598173517936056
0.9743974876446674
0.68457286122329
0.5156636270469048
0.5083384902249446
0.7839557641144461
0.7663359401617239
0.702696638185731
0.8294472348377349
0.74453234177512
0.8597863287748887
1.421835735325429
1.1329677810299235
1.232536940423299
1.069923716685062
1.044684644977504
1.0088384930555823
0.870047375748308
0.7166007582713877
0.7448368244508159
0.8227228756504495
0.7898231408971383
1.571043116951779
0.9809415924198371
0.6494198165141544
0.6546031940127272
0.7376339679148252
0.7647929676365176
0.7170121475285898
0.45716755793736213
0.510741476181288
0.6590942245816144
0.6871111772597994
0.6623748477752659
0.6253488617785369
0.4448636557046994
0.4407077984357899
0.38936955015118807
0.35753203119962074
0.40614398792288825
0.45429431751665866
0.38090191825153646
0.3794180734705556
0.39605967138220954
0.49425969899948347
0.5972402515849113
0.6697757603285093
0.7620898732936439
0.5709269826836582
0.5710031145765975
0.5802942151294129
1.0689046231085289
1.0534069877423073
0.8651217247174461
0.7402582413513281
0.6301978732538441
0.5334361652083353
0.5542515644070403
0.628967061658064
0.7239151592336686
0.7698176289707266
0.6559553508009337
1.18707878064291
1.0251188903594346
1.1637936103203432
1.151824763556597
1.0122331522458883
1.3807147587126571
1.5572885011158024
1.8172460307975054
1.7857257187962492
1.356280538373369
1.1265766138112283
1.3999503128516144
1.1671236755709027
1.0858499075410277
1.0509297804913347
1.1365355542746094
0.9263385899977986
1.1883982863802287
1.3313857468166401
1.6657669759070124
1.643174812087037
1.8596425307149231
1.433628637079556
1.636248617448657
1.575112796790011
1.9458568023424019
1.9990760324822499
1.5424714456806983
1.3482423587275572
0.8469313067431574
0.750872623246345
1.0382693910297824
1.1145498219414656
0.9987157216506051
0.9453704011107588
0.961662071350184
1.1177167113267639
1.2709135223600787
0.9253510908263868
0.9797727703355991
1.022147062657258
1.1370497897876808
0.9511017840680939
0.9637202560492398
0.7156849381910138
0.7293903317255578
1.2540779446202157
1.2136754613588256
1.0936261493798085
1.0896406563308423
1.5058178332943608
1.240636805261537
1.1413014683871343
1.2239479957997772
1.0137839079573847
1.006359373415172
1.2102120670819374
0.9278957789450554
1.0692181799204747
1.3001665263022575
1.6181263912935957
1.5945434397095017
1.529909465351102
1.065436827936799
0.8192089370091208
0.9144373015077082
1.1094152644132018
1.1094152644132007
0.973865037716414
0.9207858685758439
0.9128949665877001
0.9213924560333355
1.0795973229590188
1.157995372106619
1.0691282404752391
1.5924619755398537
1.3574382432044931
1.440429383688963
1.831663841557839
1.6798958213484407
1.7762475658417527
1.763716663512457
1.781521561273141
1.5585730003983924
1.4227431911531165
1.1023783523340054
1.1203540608758362
1.1608784125289577
0.8849939953223025
1.4375394749476007
1.2991769936789297
0.9223287278812907
1.0450768059474886
1.2960278172598039
1.3452985253374161
1.0205437614067199
1.3988742123914857
1.0225532189604414
0.7344639212049182
0.712779582523742
0.2736522163884421
0.20582332016418856
0.16165699178955173
0.15838062662963784
0.15995316285695654
0.16291692176556444
0.1866811082821122
0.15367689671579293
0.15981241202790733
0.21558281246938085
0.21113043398650022
0.2040126286950575
0.28054399158828147
0.6474045350989137
0.22379731450106696
0.21504146550388248
0.24177975499390306
0.13234245941086353
0.16904391473396554
0.09192649135098477
0.2133417231241664
0.35388786297968305
0.3833921494141998
0.28219075880359784
0.32226621246019094
0.26775471859092165
0.24058279863929133
0.362024089447638
0.3740541054354889
0.3280526715352923
0.3338088855468913
0.38683763034897684
0.39315037894197485
0.49698871205969064
0.4025936853189114
0.33977573393833455
0.2126262638531734
0.19593558290815255
0.2110125259561473
0.2004665413865846
0.09219721164626632
0.15573536004383515
0.21123757400889134
0.17178438388563982
0.14281021547521475
0.17182054002413072
0.16395571884972285
0.14103383209759854
0.14326295730643396
0.19320548644121407
0.23285220449301372
0.3659246048502652
0.47356724817259516
0.6588196817045253
0.4628900384381379
0.2192559218258109
0.20244250057942964
0.1764622996669652
0.13183450519493234
0.0759751132608987
0.14350282968931016
0.08088694409752636
0.08970030639951593
0.09753640719376501
0.15501672571539438
0.13529068948868073
0.18941530417777214
0.19405218964957846
0.2044762951550145
0.20013128544773104
0.30481640897669166
0.2765744273426444
0.23855111311964347
0.40181115920582955
0.36293104075439764
0.361648038909997
0.3545945613229952
0.41624843117067156
0.4352044552429464
0.3349587790285703
0.3052093878175249
0.33379064861599267
0.36188525530586
0.4529755446157626
0.47596839114546013
0.6031966479429872
0.740261107250124
0.8356124149294689
1.0971730417254073
1.1317304126020673
1.2445474458515848
0.9901475429766737
0.5928410159605346
0.6140982016858869
0.6331210466850271
0.3642610570232595
0.4683171009832631
0.4911028358432049
1.057777971165059
0.860941314895626
0.8575484025321697
1.2144228327107027
1.3898245300556107
1.3642825059150185
1.3035392458276958
1.1964835366050672
1.2332940931687524
0.8393786958341312
0.9751755480493368
1.0184824029304922
0.6178257754316536
0.5035928784519704
0.5504310788016541
0.6895982101689531
0.7007790330361293
0.5681658882685102
0.5342961948991294
0.4989503758181434
0.523814820066246
0.460673874827127
0.4570614967515696
0.5675891851012457
0.5113705820498338
0.4944366978094839
0.441632346077836
0.6213889250396089
0.733580734399589
0.5847760022322799
0.4821396748281028
0.4200903643177826
0.4735008885394832
0.6245312000871853
0.6331210466850276
0.5584885995545759
0.6626646996055767
0.6040953508679435
0.5264679332538129
0.6637976699448809
0.6174201043944347
0.8796472562287428
1.2273365102060136
0.9583398619001194
0.7887243557378002
1.1327974910141225
1.3801132800671878
1.3246864192340373
1.4993024318077508
1.3957645236979384
1.5419258234085926
1.5025194778356337
1.1793318688891417
1.0046455195539763
1.1109949350202284
0.8918141773618501
1.0223409932629814
0.7618699459255724
0.6797978494202964
0.521556067262521
0.5108547778574134
0.6738830944335615
0.5636102553649
0.7315806478686118
0.502203124062837
0.6384579114255258
0.7184025316175336
0.6666051298709698
0.6942369549113703
0.5883834825112816
0.4158426084046386
0.44855901539070425
0.4584486370953299
0.5132761925717594
0.43895690112024216
0.46595593839425486
0.3593309452453179
0.4447860785396497
0.5670399361352235
0.6114705951032298
0.5479005695435532
0.41532573923266336
0.47643258536038596
0.5727893288147324
0.535886258410024
0.5905810462682913
0.6386955241033312
0.390907387950787
0.38798265544497806
0.42108232342586877
0.48237314322896224
0.8913028659690935
0.9201349626546843
0.8636884308763559
0.6811320059108444
0.8899449795337405
1.0006863142190727
0.9971617648805524
0.8954954288483974
0.7618699459255724
0.6999531850227363
0.7690137574359127
0.7787302580030505
1.0715382242769411
0.9864815287865552
0.7071523089842275
0.4409762031626703
0.5449180828947022
1.1886930415162726
1.1886930415162726
1.0151506607325227
1.0754689339837789
0.7919064379621465
0.9873290485998976
0.9845958159279768
0.8109461024453465
0.7156849381910138
0.7293903317255578
0.9466642925107732
0.8218266657074612
0.9402045318892581
1.0367882615605237
0.9507627388203215
1.1653714685913845
1.1968963593846536
0.961662071350184
1.1059767368995626
1.056839053857491
1.2412845044434146
1.3019275440754658
0.9581108830867314
0.9867989083696779
1.0041606408250037
0.9666883926217518
1.0369094875530935
0.9389213110027537
0.7096494445529817
0.8393082807763299
1.1523924744478249
0.9347665558177441
1.201540848367764
0.9427331661897441
0.6686143658325178
0.5949904245115207
0.7908169482214715
1.176139625894732
1.1681125513740134
1.13455465251364
0.7350669352448076
0.7996695301617592
0.9995073913950608
1.0396209677166202
1.3121913445270579
0.750161944767482
0.7972647891315741
0.8891327959910669
0.9498713802919544
0.7097527165258498
0.7619854716569379
0.8556236035955644
0.9136069805188652
0.8999988678858439
0.9022964837485519
0.8987711082503144
0.9858979338070311
1.032943832734363
0.7077195538998023
1.1462744627785368
1.1782022250005801
0.7406027775805056
0.6244241733782785
1.2648049261933982
1.16405492283648
1.3009240110588776
1.3104202446352888
1.2004155977814237
1.288505058124239
1.2861918257793858
1.046354883596445
0.6151293793667787
0.6609032742486133
0.5070658999666153
0.884452144633151
1.0949825144363277
1.4085992442510216
1.607332014252846
1.7272218678696802
0.6639087726380142
0.8408065041632883
0.9394577995492572
0.4579643613677
0.5075992216122842
0.1936086303816523
0.15250396694260995
0.11180031291383999
0.10436517585965659
0.14066121181933403
0.13717950151542382
0.14596963298674215
0.12165899035529974
0.10002100410870775
0.1293333806127127
0.10650783353810943
0.07567061527174457
0.08465746186293732
0.1591246765044454
0.3392659447814581
0.3277974364989918
0.29367746565191843
0.2612423606732237
0.25971310703084055
0.2198824785748738
0.25008132875327266
0.14896827676530877
0.22907224463923906
0.17759347745616821
0.19365178245178982
0.2280825448783373
0.21319223083862562
0.22234366543327316
0.34190855837285516
0.272290127976753
0.24581101713652945
0.21245063006990692
0.17913545052817728
0.23888469620189373
0.2463777236346073
0.32832109327090914
0.3182043760554925
0.4044574100369925
0.26200495851995353
0.31210910922716045
0.2261197700190202
0.20768519593037751
0.22354105151624218
0.19512140440575265
0.15777007712092103
0.15788461372804313
0.1542536929482142
0.19428789745956065
0.22486176518570478
0.19466978320540987
0.15542902750982723
0.15580677354249442
0.15714465644277836
0.20126522210623715
0.2675258239110461
0.33424753647454436
0.3099995431273366
0.41198474720890516
0.4323895122645743
0.3249276219192805
0.23753237220405085
0.17925002921916328
0.11861648528053728
0.0869534120198116
0.08683991796560485
0.14671607596674846
0.10730188574117687
0.13660340402829033
0.17992102049538583
0.1537467145503687
0.14699730755537826
0.14466866567920914
0.17791162172094072
0.19565288379569287
0.18930050820591107
0.23194101598207775
0.2148237139123293
0.2566416345044254
0.30151276070751426
0.2653533623895305
0.22157435251543844
0.2566874873180776
0.2937271499873108
0.27325968396527167
0.22908018730975918
0.28746263916375997
0.19380631201035026
0.2821424394847693
0.2856528683756087
0.3678092542199702
0.41300807578497667
0.4968127902696408
0.4860857662116404
0.6258141875708759
0.7475090494269779
0.2812285562437718
0.2991818179835279
0.5926196520170312
0.7564594941333043
1.345863229504041
1.378089064721079
0.7533204703584858
0.9072237499324803
0.9708325532154127
1.0412258819949265
1.3960585676194406
0.8452915339203854
0.8379252795180135
0.8683591810654588
1.1857532656600571
1.0713649695935747
0.8461642915848091
0.795836123529462
0.7794341134708009
0.4596208772330723
0.45055299130190624
0.5052880626160217
0.5815571440591543
1.429520027754431
1.467844562692916
1.1608205448932594
0.6993405277736331
0.6571584538693361
0.47572508604325675
0.5482339524294442
0.2812285562437718
0.2991818179835279
0.5681600628637278
0.8721509462033115
0.6904479782615704
0.7222379410144347
0.715576249894026
0.7476887284044158
0.6600116796230435
0.6436438788414637
0.6820092205136609
0.6906745658930786
0.6864830803632646
0.5423261445466393
0.5791501690994132
0.6366299485204854
0.778249188721316
0.789126714990226
0.6511493200894019
0.5161303938597414
0.5264679332538129
0.38200953733582016
0.3529179464200686
0.3378024977468519
0.5858451186948298
0.535663855400943
0.615157864879352
1.170824045177434
1.137049789787681
1.186511535467267
1.179755360260239
1.6310252434734926
1.54300461880866
1.3760040062625662
1.3865287045154577
1.3513482153887129
1.2495946465020187
1.1357555365980738
1.2484780077714008
1.2075735947451878
0.9098607359578722
0.5718465879731282
0.5057470535408379
0.3769024171993692
0.40246692159444714
0.49728163316074264
0.40867557185962816
0.3535611587784663
0.3725873184610362
0.35530560234402675
0.46345227138448447
0.45904610627735903
0.39717295909396516
0.3880440076596645
0.36129961316769904
0.27443616607553384
0.26961739324831363
0.3098716990686676
0.31455966088819315
0.23963441882176173
0.28404073961438847
0.32067915412530534
0.3615280416454317
0.3551913345146172
0.36871783597054564
0.37390013366296965
0.39144035675888694
0.3488354576005207
0.7138103096120617
0.6712760792605835
0.513648766459343
0.40220439252040896
0.47086880577420415
0.6849126356689695
0.7791938072235174
0.7690050618005777
0.8510526049326246
0.7311064611304917
0.5337654427790981
0.5138078257334361
1.1065429178507378
0.9337824848975558
0.6028706744426913
0.5293927949285646
0.7908169482214715
0.9934562434591854
0.9074587592492165
0.8929401954728153
0.9509371746203694
0.7954363296947928
0.8042871106941801
1.1833755959072823
1.0821583891647308
0.9927439225285928
1.2182267782595975
0.9453704011107588
0.93245336692349
0.8829110573353957
1.1719993397678565
0.9133468471395401
1.0575994355361276
1.0267302907189975
1.070842447280074
1.2747022457305552
0.9738650377164145
1.2402440461381212
1.3360654083107502
0.888857500432326
0.7683962008551718
0.9402045318892581
0.9347665558177441
1.201540848367764
0.9427331661897441
0.6686143658325178
1.2208224177917397
0.9174315763919034
1.1676949972321313
1.1995196188242019
1.0048321831593612
1.0139660432894293
0.8864778633158896
1.063389817813666
0.9862161938797062
1.1437608506356602
1.3180092827130117
0.9669163467431945
0.7178721913788463
0.7495649859271835
0.7495649859271835
0.9451952767290852
0.940260122305465
0.7473959846716524
1.0765005099706055
1.352106163548021
1.4207114936052838
1.29935540976368
0.9337285527281616
0.8772846223552548
0.9065963785715916
1.3597463915387573
1.4793756885362495
1.4793756885362497
1.10903620902268
0.8772040830132547
0.9511017840680939
1.4013153149714133
1.082034853989701
1.3865287045154597
1.468211046006711
1.5444356980992542
1.5171142186270445
1.3947283367352397
1.09975166353764
1.094441907842561
1.1922997268634998
0.9833168175322726
1.0028896371213063
1.0149838178368489
1.0286548489866973
0.8592226174146766
1.3071637902379447
1.3437436340709934
0.9901475429766737
0.9100315103865803
0.5929640111860498
0.32007782662509277
0.19002544386898568
0.192748546595815
0.2295052357201865
0.22479700346085177
0.26753887515296076
0.24070242515048637
0.23024291708733768
0.2705998161350125
0.29633973575572864
0.296979980423428
0.27857893435139025
0.22472882199007863
0.22189087082074727
0.3421497951914765
0.2656099322475604
0.2331503810239827
0.2276936878642028
0.3356840454056984
0.31233642752393714
0.29758678766614133
0.2212138801975217
0.2446867766330854
0.22813156328614662
0.312343618722921
0.3143486382298814
0.402176839143044
0.19272497149585602
0.19849016120196467
0.24629508933257757
0.21864374214276777
0.21462616853834166
0.1900722829979969
0.26576279214321824
0.3728859470828858
0.3832198191498202
0.4157864751692795
0.27732138559384456
0.5362051706454363
0.4114150770661743
0.2977441612382679
0.26695502874006344
0.2609884314731997
0.16182435780663146
0.16345997924527544
0.15450285431555716
0.13510187684711764
0.16535854734135202
0.15388755515837976
0.17557469020752353
0.1387275332204791
0.14080644208785223
0.1712345844993377
0.18368499202973138
0.2793682376756441
0.3400323547875715
0.45673995980387805
0.496822777997708
0.43144163955675763
0.38233423447152703
0.24543515043112069
0.138407782277791
0.12389628411264668
0.11455439168423913
0.1671257427613703
0.12011216093353476
0.12815924527494058
0.13633040020846313
0.1161632790599385
0.13282784400123093
0.1338694990184071
0.12710417056514428
0.24363302078500548
0.207270125996531
0.2668179268649727
0.243944602566295
0.23425973231575536
0.3020852744734674
0.34530784368977435
0.3631417705401592
0.36892820126391523
0.29749321091649866
0.2775619888150788
0.2653533623895305
0.2873898999423005
0.25624302636926644
0.36943437640987603
0.4428710559247328
0.30480726843464684
0.5120435433064795
0.48672010870979576
0.5675619978217757
0.9485209081801853
1.1188216588280742
1.1240761327326154
1.0253882241068681
0.9102204344460746
1.1694792141145098
1.4375394749476011
1.4615215548512095
0.9181553991582684
0.5135389894628296
0.5795924394271145
0.529250426554326
0.539963107639784
0.7496958414081416
0.7364752422579314
0.623037379290166
0.6766745959474673
0.8024969376238142
0.7671184471152411
0.5319132450865452
0.4896522490277872
0.4864439431627244
0.5456199654989444
0.7336585176363359
0.6339053185280004
0.6915575987718481
0.5271308601849958
0.4792587262194026
0.4894144278400686
0.6877628621844014
0.7686937446249412
0.7317171663818448
0.5749629420812356
0.468491033141877
0.24503904863383125
0.4014688704972467
0.33720235746364974
0.37046775816534006
0.4744801059202824
0.3821258626600098
0.44764468817586106
0.5641503059058545
0.5644376772520862
0.5068610513220663
0.37536173957774144
0.39561447879286044
0.3288353335718628
0.34288208482995686
0.33720235746364974
0.37046775816534006
0.4909959634984604
0.4860857662116404
0.6258141875708759
0.8326184346054771
1.291561722015298
1.5592220203354048
1.4150101872159793
1.099533521855272
0.5795641774638479
0.708227608092472
0.5674906664067
0.3970662681633192
0.4438261849217787
0.4933728580442592
0.7706200937511907
0.6290440759285869
0.45152942691227904
0.4596893051028927
0.505777240015005
0.6029239252637993
0.4509921812780797
0.3940567575856106
0.34244747214458005
0.36777596962403186
0.4725815173875384
0.4830221160628036
0.3874251788102696
0.3755141512839066
0.3628638515633685
0.4559114290359791
0.5423087369342798
0.5495297622161315
0.31723365589361874
0.3566840264520805
0.3947626316579691
0.3984138253971352
0.49157575713354823
0.614951767614696
0.5574562208741024
0.448902771368613
0.4731957693673197
0.7112958902606439
0.7738883099968124
0.8453856974398939
0.8179148552103032
0.7247883494454413
0.7272908772791299
0.8739831638229516
1.0009552241631052
1.1654804600958284
1.1810121979127615
0.9560821513237406
0.723274788715199
0.7428920490758816
0.7363789260928145
0.9755039372445459
0.9712812000855278
0.9393974931239849
0.8356018132494871
0.7631907313683245
0.864146508717084
0.8587998916876951
0.7876603995747158
0.843439537772533
0.9234429811707666
1.1706657918270285
1.2463467878902943
1.4359293775169168
1.205102519030088
1.4120782464736856
0.7654396330015543
0.6151293793667787
0.6609032742486133
0.5070658999666153
1.0949825144363277
1.0949825144363277
0.9790403198079544
1.0896770049529112
1.1514398277919742
1.152101851971294
1.238618871906467
0.9337285527281616
0.9592126025861913
1.0021071758012705
1.142402335760921
1.1923734580747503
1.1733884382325952
0.8643445329178029
0.4596086290879403
0.9281388086207508
0.9130650215809255
0.9468510792321213
1.0353287899158015
0.9633651395969686
1.0124308846252728
1.138192377440603
1.2770912713631255
1.3744611976676822
1.4286999930513846
0.9707187241979957
0.7214188575948379
0.6825061967504589
0.8470397594183295
0.6519982015269068
0.8568735885207716
0.5323286388103144
0.666436588860132
0.8112187031796497
1.0667152816848777
1.1385336523905956
0.973865037716414
0.9207858685758439
0.9315148304567824
0.9213924560333355
1.2702796138780335
1.2702796138780335
1.2702796138780337
0.9759000729485331
0.7979661845474001
0.7777093647678439
1.1889620260551028
1.0774098669190775
0.9931325098404881
0.932890770076421
0.8342601174901646
0.8305804638610528
0.5773058577625614
1.0233940409176823
0.8868101760469669
0.8427253995412544
0.9380831860863169
1.1306162514430314
1.1741366386216778
1.120354060875836
1.2822242282879166
1.1680284442396343
0.7358602010000529
1.3009240110588776
1.403405820280368
1.3049491258929615
1.0664364147640748
1.2396487881709561
0.7136564326788254
0.6881147575965866
1.0564251142772374
0.8955720343218431
0.8613602285158587
1.1091287672774333
0.700999250050716
0.2609900765239017
0.20582332016418856
0.15091539683893335
0.1367118515627492
0.15119530975644102
0.17556119427220182
0.1529651365754048
0.16839188874758873
0.1867444568187794
0.20503421069395256
0.22546793108607693
0.17439992397092177
0.19107399059672894
0.29522870134427487
0.23861980693403903
0.2827403031930434
0.18797528507737
0.2063690182827231
0.12798380001017337
0.10587664877717114
0.127263257444825
0.1652393849004398
0.17217149582437705
0.24503740202569985
0.2580003789081708
0.2067573331753007
0.13234245941086353
0.21053457150777605
0.18870299270998867
0.15843271784402826
0.2678073695797666
0.2710420613175022
0.2675235268790743
0.2577211041781753
0.27480853425196244
0.3515507052130243
0.3227636795563431
0.2893349143652915
0.2954901906908031
0.25634971225483294
0.2002144691030722
0.1917557162397799
0.1599357510025897
0.17422664129694035
0.16194499160406142
0.19634495070663266
0.1794691938793672
0.19411827000198856
0.157114943730806
0.17957055644605988
0.16738880748131713
0.16474321428666447
0.17562796962654095
0.18149630620346033
0.21614706305219847
0.35483711808766066
0.5851192625431686
0.5883282918323223
0.27309676909518205
0.18240364462342493
0.18414382962701167
0.1501380262068552
0.1163847969298184
0.10502369645400897
0.13759067807572165
0.11600574750540422
0.12602031944612582
0.1031648498513338
0.11204192500392597
0.11689570868251253
0.14020306968323207
0.14699730755537826
0.17230036172532687
0.16093224284101956
0.1952289337884219
0.2765696291743299
0.25795647999155835
0.20774385906322498
0.23599271964048393
0.22570285735422585
0.24327225530516555
0.28476762109496734
0.293815607642138
0.2604773351351446
0.2710997239352396
0.1974329150493236
0.21499232865214038
0.26325717911249213
0.2856528683756087
0.469027470859778
0.5933595374687102
0.6537955229400068
0.6827587448385875
0.6230194594531787
0.7742224542577492
0.9078695567649144
0.9841530761054094
0.6983072348126047
0.5468271627946081
0.48587301331791954
0.5700714262583917
0.7675689746833116
0.8796472562287428
0.7605770847291716
0.6172588743195488
0.5753200851796778
0.4010239002498908
0.5167514354078677
0.5732538908661204
0.5843328447942255
0.48080476822888335
0.6050279827175766
0.6060803083228959
0.6592534970771957
0.7005279446071374
0.6219012408788879
0.5418040471301222
0.5866427854267091
0.4010239002498908
0.5167514354078677
0.5847760022322799
0.4821396748281028
0.4200903643177826
0.441632346077836
0.5641503059058545
0.6230863869929547
0.5489203784359791
0.4182822946485591
0.3986394217176266
0.3901397349071694
0.387947352910885
0.4248890144822238
0.4686291053603733
0.5130180845763653
0.41841598951848924
0.38150409982465516
0.47925409648139095
0.7731993055438414
0.8450459372519217
0.9022964837485502
0.8223364446321842
0.7453713091502912
1.1326312184721141
1.1698981207507755
1.1457254312470961
1.0114153336778564
0.9436233234424226
1.010765772743988
0.7801116139981192
0.7293866447966825
0.8711771826880401
1.0235787012590343
0.9153698933254134
0.4624326494336789
0.4514598853572147
0.4511139973537928
0.3143458834064835
0.3016743387813141
0.34281696183488153
0.42354759088823596
0.3628638515633685
0.39628812763580035
0.30351880196885395
0.31093830079795115
0.4163935618307727
0.3280526715352923
0.3338088855468913
0.31738685724409754
0.43483478583181984
0.4310777517240305
0.4597150614471152
0.31723365589361874
0.35207955870951857
0.27373141945112767
0.39849430171828454
0.48718540938143756
0.44672427168432455
0.4388689425553179
0.47037776066604325
0.38683763034897684
0.39315037894197485
0.8047907256869733
0.7647929676365176
0.876309954282793
0.870134884223319
0.7073411013537069
0.7147305709348586
0.7060676594632125
0.9002302090325555
0.8902813027637406
0.8651217247174461
0.6902363417599519
0.6572179340505447
0.7285799949856776
0.5542515644070403
0.6353536192771447
0.7821162901295396
0.7573622519378592
0.9218575850717969
0.9174315763919034
1.1239321985570396
1.0942870613971116
0.8562951516517061
0.7798652549534714
0.8510051607988736
1.161692242270802
1.4160832543149624
1.3146843962443588
1.4583948905771633
0.7654396330015543
2.0496135614805038
1.1608205448932594
0.7493691682430477
0.7175088086279237
1.1769934528138242
1.212175539709079
1.0030205389332922
0.905243713052745
0.9130734088789365
0.6675423872530609
0.7388148606605885
0.6792390531930064
0.7374383739490553
0.7014478962927637
1.1492008588660494
1.1521634712991975
1.016999034456092
0.7038249698731482
0.9367874360833965
1.2895378722884105
1.310477796101807
1.577791428861608
1.4131610154298158
0.7972647891315741
0.9379687580815792
0.9521285656607656
1.0654368279367983
1.0454663163414164
0.9633320179774674
1.1617989759723382
0.8394581101214158
0.7779161704030728
0.8308718590725344
1.715792146954626
1.5213220977529314
1.1845360445447568
1.4064454027148185
1.575112796790011
1.6977008596288037
1.7245693186538678
2.014255907192389
1.3642710868247798
1.1232454134443426
1.3602557629135044
1.2905816109247388
1.290581610924739
1.891819303679799
1.0827439612462888
1.1295049241962003
1.4949002659852755
1.658423169433055
1.5776674790376777
1.3251953062902422
1.1584187213432977
1.2212367022106205
1.2497394338353431
0.5614505714570152
0.6684379851898791
0.6689353963822731
0.8813749931540003
0.8106052230437434
1.0350146764362722
1.1512688022222075
1.0422307253992817
1.1252548653899073
1.457262108910501
1.5188697315478854
1.133599456530766
0.7048632786012266
0.6842431191546722
0.7294758721382696
0.6267000504699752
0.5560191380629642
0.38573392645773114
0.1936086303816523
0.1285424209455612
0.10436517585965659
0.15189910766062104
0.16474024542452526
0.18962196061756856
0.21854459604905363
0.20196294486528485
0.16466016856850466
0.19925572334872174
0.25054311201883345
0.38339534314561313
0.6568217771570419
0.2893758227604233
0.24500351742055224
0.20821660606317335
0.1796987129339241
0.1603603599832091
0.17536632978177616
0.22813156328614662
0.3666060589321368
0.42442521463460525
0.5389589022698317
0.681269219565803
0.584749951233062
0.24584899432848925
0.2011086648068815
0.266410407935185
0.1317165368741759
0.11866451333184609
0.16853441872262848
0.19580703616107153
0.2786194600360711
0.45447863233579283
0.4802753326322791
0.6537955229400068
0.5681600628637278
1.1859290808912237
0.9987157216506051
0.888857500432326
1.1287620020040408
1.211434166453744
1.1804447266616953
1.1420323125167862
1.193284863224355
1.0325468024097695
1.151439827791973
1.151439827791973
0.9837045916345453
0.884452144633151
1.2608715269106892
1.067739795644778
0.9379687580815792
0.9521285656607656
0.8562359237673459
0.9126833110459249
0.9633320179774674
0.7911464611748292
0.7166341906372415
0.9782782717129054
1.0516346970709947
0.90791019848664
0.850951138717511
0.835005430369284
0.9806452706607247
1.2050357985540596
1.044684644977504
1.3872123821426288
1.2040452836066668
1.1114045438952156
1.0446264116778385
1.4262160953309018
1.1695713653573656
1.176818677548983
1.098512079199982
0.9263385899977986
1.0319418557526832
0.7495649859271835
0.7495649859271835
1.0308014995544885
0.9393974931239849
0.8356018132494871
0.7631907313683245
0.864146508717084
0.6023494777563104
0.9647748973484186
0.6088211385941907
0.8295753822012077
0.845245205239758
0.7990213078102509
1.124228433059038
0.8202236825372975
0.7578144580665619
0.7397089722023716
0.8085573421405478
0.9347769528850968
0.7406027775805056
0.6244241733782785
1.1860741364686511
1.2451612913397732
1.0536890897157416
0.68457286122329
0.5156636270469048
0.5083384902249446
0.9970396877453003
1.1341728509944662
0.9213969952865172
0.7412276550732652
1.0363410410571126
0.6230194594531787
0.7742224542577492
1.0283371182471768
0.6533815255816402
0.46169123790817607
0.457344982781554
0.40822776629406266
0.460673874827127
0.6649807361783526
0.6315129956391526
0.5938931559025339
0.5096980060263112
0.569377541235648
0.6034218296095698
0.6635582015721141
0.6821408536746876
0.4783941790723113
0.36973016362155464
0.47925409648139095
0.5702343836357109
0.548934590817508
0.6920461189420672
0.4351198662997315
0.40900794957934977
0.3387015124162349
0.3642610570232595
0.5173106869108074
0.6248531317803263
0.8906445814261306
0.7480335951281006
0.8386977796921264
1.3223167874005282
0.8452915339203854
0.8379252795180135
1.4814343656720501
1.3013394054489187
1.56679487472254
1.2068748904047122
0.9562014065574574
1.0057712300036323
1.2448330119595348
1.3147368946711049
1.3936734011314191
1.2478870785920744
0.7690493858592373
0.852225637276094
1.0136081817416869
0.7890015816906873
0.8221093048057027
0.9818344551787801
0.8648987615915225
0.7433187948772875
0.8707102208201275
0.9337080412588824
0.9627064410349244
0.8828548807306078
0.7933962196126367
0.8567058140158462
1.3305165873227125
1.1740827630259096
1.2104623364550424
1.0135385634860576
0.6811320059108444
0.9065963785715916
1.4500979785674764
1.6155752004901436
1.7112436235136614
1.5166762957064965
1.0205437614067199
1.2368707803460253
1.1524099489736421
1.202449048811365
0.7883986954426356
1.601958808836187
1.4091336404618753
1.367803098126346
1.0266248056549727
1.0613123732006915
1.047079052362517
1.154298950349185
0.976696857704645
1.2114947199943404
1.2136889643424615
1.1021660334583525
0.9374309457679121
1.2022279093261121
1.3661517503536675
1.5680424921922795
1.6518139170212516
1.2324310006279757
0.9030280760720911
1.4273769466470303
0.9324828232629112
1.1437207103327778
1.2595307728743472
1.0233940409176823
1.183375595907282
1.2120988865344462
1.0389193447108362
0.8469313067431574
0.8112187031796495
1.2551025898128803
1.1206447323472344
1.0765005099706044
1.1337323329236282
1.4616796317065364
0.8500420767166849
1.130815508771624
0.9905437893188932
1.2343205169066949
1.2886592111609485
1.3188685302683119
1.257402253786734
0.8341409135340979
0.9030280760720911
1.0778789503142057
1.2210098130341738
1.3398283954093626
1.0126130971572984
0.8686381889948381
0.876233154975162
0.9774790725723957
1.3579304492680595
1.3817544090049365
1.0619884881071833
1.1021660334583525
1.1566876362399252
1.298468155251281
1.3106904222644737
1.0443435575644588
1.069923716685062
0.9185808405469847
1.2043751699246579
0.9642870016813408
0.7356260058082265
0.7541854073135033
0.8633127514025631
0.9755039372445459
0.9436580874723103
0.8008877845177292
0.8913715646127871
0.9950184617029479
1.0149838178368489
1.0532152093491103
0.95502635204114
0.8414398775961145
0.989924783760999
1.1911593896927557
1.2942073687689415
1.2802208662772463
1.376619095820815
1.292815881620086
1.3077755561973747
1.0978218643982618
1.3288875374806717
0.9185808405469847
1.2043751699246579
1.1543338836286692
0.7109650082321195
0.8017504755653649
1.077449035717332
1.1579778005950805
1.004263151719594
1.1451639052415674
1.083636668938185
1.2942725803470927
1.352822876709233
1.099759668196442
1.063219528253826
0.9121653827713287
0.9183915355074629
0.8800289622793332
0.4091273721307136
0.16785320355112834
0.13217313458074406
0.18560807615887853
0.2837407123181245
0.3021154405589538
0.30130980336031693
0.33500440263192105
0.3598409969434889
0.38878094341846214
0.35026084429924
0.17439992397092177
0.21948469651787297
0.3784113949078693
0.4916489219840991
0.4680933897272159
0.40006768245541735
0.3276673850229689
0.3292866104300269
0.30709521741841966
0.17913545052817728
0.23888469620189373
0.2463777236346073
0.39220683370293
0.46474818260644635
0.7629429991341581
0.6358029215169961
0.6229461787243907
0.5151688714543532
0.5177434287794203
0.6738830944335615
0.383995353797879
0.5808441492411468
0.6240956426709167
0.6368363975654039
0.988875449065117
1.1210963754632295
1.287595568992117
1.2273944730237596
1.07933595983819
0.9650809991328676
1.3239078336651642
1.4848803251265115
0.7883986954426356
1.0983479888429049
1.5211996665294116
1.3579414864228954
1.1149812755751378
0.6514797507857121
0.49687063446562474
0.38408072636684737
0.24857166797925315
0.2023751407580033
0.2793682376756441
0.3400323547875715
0.45673995980387805
0.496822777997708
0.3516750536434589
0.24584899432848925
0.2011086648068815
0.1805431966320684
0.16941132762433309
0.19634502200790993
0.11928512639283162
0.14312090583388676
0.088547347483666
0.25219442658985214
0.3372151491737303
0.31583767205272
0.41508686968322356
0.6294092893943801
0.8468873390655254
0.9822673736564561
1.0390817478810832
1.1375073673814082
1.1403369238806893
1.133973469554919
1.0603345723991642
0.8931292773525595
1.048315989413276
0.9558920920216087
1.1530823386153037
1.1067922600415567
1.0972995379971349
1.1688028865047142
1.092842325404396
0.9797133310087967
1.1029899316620038
0.992125052699933
1.042353247440288
1.0423532474402877
0.9280183561106284
1.1709761827794383
1.0351766300554253
0.9517750569099788
0.9873290485998976
1.0050672706347086
0.9480649719119276
1.2339386461707733
1.2120988865344462
1.0389193447108362
0.8933173790724913
0.750872623246345
0.9509371746203694
1.0422307253992817
1.1252548653899073
1.3676890472658367
1.3851055755780262
0.9606464395258836
0.7717040705115943
0.8370773814115254
1.1769934528138242
1.0605393032924606
0.9682458365518541
0.8689021964596905
0.9028986347487199
1.189007800541868
0.9425310114408002
0.7347099055674418
0.6942611475729696
0.5330197853491114
0.4372222407425085
0.7619743611291594
0.8785544079816967
0.978431069927585
0.9701659930760288
1.1533369264895244
1.1565344299238551
1.2809780122794276
1.3033187231726464
0.6742935454013741
0.7848978522090038
0.7205897303162515
0.8861144974194064
0.7570431204114842
0.9678938737906282
0.8989909720624216
0.8234870998095647
0.9078630146099954
0.467273748308959
0.635422785667229
0.8870041751703724
1.0045206294467808
1.062971840183155
0.9100315103865803
0.9349217582577488
1.1459553515404473
1.0755296343678662
1.1365355542746094
1.0266248056549727
1.0613123732006915
0.9576479143215103
0.9449602421775769
1.002371298218311
1.0872827448605031
1.0735148272582145
0.8200079238206625
1.0303754878441018
0.5941809669003123
0.618344044243765
0.7583118563116344
1.1433239009500593
1.2290366012295568
1.2290366012295566
1.276255040783842
1.0819531256827
0.8451542547285174
0.8259952674873932
0.8014258926069515
0.7519346319799087
0.9866161670273407
0.8743611960674241
0.8307564159189992
0.8976804331511363
1.1412656905250955
1.2858565688908814
1.0968762411676511
1.1245432301751968
0.7911464611748292
0.7166341906372415
0.9782782717129054
0.9253510908263868
0.9126833110459249
1.0048321831593612
0.9973013541602003
1.0925627069493502
1.302993010301634
1.4065259467477195e-15
2.9822716984172073e-15
1.0229708192341311
0.922801917945456
0.8960198207131662
0.9647529295566579
1.152704817012224
0.9739395762368016
0.8828548807306078
0.7933962196126367
0.779112294351236
1.1230524954260723
1.1613514649616554
1.07381175794664
1.1381923774406033
1.1994835177968115
0.8424033678566171
1.0898206245802922
1.025978352085154
1.308812533781185
1.3540974811372457
1.1241618127794495
1.1238306335653292
0.9278780782445254
1.2510513080382841
0.9374309457679121
1.0597181620869751
0.8648987615915225
0.7747242641902966
0.8707102208201275
0.9337080412588824
0.8204687059297051
1.0735148272582142
1.0791947225970797
0.934993637441567
1.2668402811701536
1.1719993397678565
1.1652028614193612
1.0457519162607418
0.831188685420858
0.7533204703584858
1.143818392284804
1.1862368361580249
1.1890401897529193
1.1855809042607783
0.7291478816594607
0.9619454018638949
1.5585526177312958
1.6420663037928753
1.5783670743252065
1.2753605612161365
1.2587813152163094
1.3703979687234111
0.8702421092926681
0.7940439631846988
0.9325048082403122
1.1022385215917214
1.1118686900786114
1.347809360806874
1.1833755959072825
1.0821583891647306
1.1589645314350967
1.3895801180347929
1.047910730816262
0.9886242150287285
1.0319775434980605
0.9973096427453985
0.948287622659533
0.845687105556316
1.017403029993719
0.7973788985960563
0.6868673601357207
0.6000326341482322
0.8562325094789901
0.8271060950530715
0.9870131382713908
0.9428090415820638
1.150660196168428
0.90272141911616
1.2022543904994778
0.9715974906347259
0.9183181257327646
1.2739102672305267
1.2275790913710196
1.2476467470947235
0.7516933982505547
0.6888135360002462
0.665719102162711
0.7883890477560358
0.885614885540095
1.0974946343456669
1.3187669891946565
0.8414398775961145
0.831188685420858
1.1911593896927557
0.9498713802919554
0.944487884903669
1.0598209866947519
0.9425310114408002
0.9082594902474944
1.2336673015943633
1.2097627941760918
0.8797479141802127
0.9591861966716997
1.1904713747142923
0.8288441253193138
0.8797539709414556
0.9581172130092332
0.74453234177512
0.8597863287748887
1.421835735325429
1.0090470917805896
1.239466156496453
0.8683591810654588
0.9837045916345457
1.2819730208701303
1.2640011163091367
1.4012495823591204
0.5436583366591833
0.16785320355112834
0.1623942077848253
0.1375163270263293
0.14975090146059017
0.14927132780655344
0.152748122899432
0.12165899035529974
0.10002100410870775
0.1293333806127127
0.10650783353810943
0.07567061527174457
0.08465746186293732
0.13300814219338639
0.35231755091982464
0.2543947500071358
0.2674199464636492
0.2951922745082763
0.25499376336768065
0.29079113185659977
0.3053169264578632
0.2358520020330293
0.288303607172072
0.20478149267837442
0.22256735119165932
0.2504946829472917
0.3759461980801056
0.39668223685290793
0.32901939318608314
0.3088265144495887
0.3095156260651852
0.32888614093873625
0.35784719860312164
0.26964285985135134
0.2477874158162264
0.2641771898001225
0.20023752138978282
0.35961444009863064
0.39986421834975094
0.31164743381542453
0.49127025964880267
0.28493320607355654
0.24004010229777462
0.2016916438176794
0.16720311097718676
0.17172508039484702
0.1750406211642807
0.15450285431555716
0.13510187684711764
0.16024482830164155
0.17050785935613536
0.16822079053670214
0.17145530019708421
0.17557469020752353
0.17705620943035935
0.17708878877492978
0.22662979366359157
0.31707393234724723
0.45589217701161333
0.5883863667168766
0.7767313511380011
0.6327728305774826
0.3899061043510493
0.2887421372519547
0.23683116896888284
0.16569976341170642
0.15331912764348912
0.14846520148300002
0.12011216093353476
0.12815924527494058
0.13633040020846313
0.1161632790599385
0.11999024145321394
0.1182489888477871
0.12710417056514428
0.20036605941589705
0.207270125996531
0.23270916819187812
0.24414471781055025
0.19668459330179267
0.24930881140428815
0.24150325318685759
0.27967760212722775
0.2129761516770024
0.2051368180316342
0.24994078013983248
0.3107977580532119
0.2580283246374126
0.25367047576864793
0.28508340945353694
0.308340359659228
0.33228129659406674
0.3568286949868654
0.531136178454697
0.8326184346054771
0.8467111404924285
0.8863682625225211
1.2260802675314304
1.1857532656600571
1.0713649695935747
0.8461642915848091
0.795836123529462
0.7794341134708009
0.6115518444508176
0.6303011247224701
0.606071292013777
0.8148441257351254
1.1005540622732997
1.1697765997391074
0.9647529295566583
1.0493972799089448
1.115727581468916
0.8042871106941789
0.8428810633611173
0.7282595514290213
0.537253747650506
0.4600237902071273
0.7007674572089609
0.7910517287497103
0.7730965228033728
0.6364950493241144
0.6952958260600626
0.4809955673819384
0.38969502666772937
0.6902636267433219
0.6877724415386446
0.6684260203465141
0.5120858303792049
0.4267098402557779
0.24503904863383125
0.3317101743679621
0.47744999146015527
0.5572651528439535
0.5594784211749392
0.58566487949197
0.6590217473336651
0.7666600906222806
0.9697456810208251
0.9270986524262261
0.7458241266277754
1.0209090623666681
0.9384363599181963
0.8321916697273789
0.9355251438960074
0.880802991013288
0.7679761784129846
0.7492558605808953
0.7491408758598412
1.4196844283040482
1.1365355542746094
1.1441092509330895
1.140227782655078
1.0493496483484974
1.2705226000429495
0.7077195538998023
0.6741452152485288
0.7989817433950811
0.8900142005452858
0.8591862438428116
0.6186029807882741
0.5418202280750435
0.519207407864901
0.48198779560626065
0.7285479463306858
0.8360231801676495
0.7956337525762117
0.6928270559763322
0.7380044639331204
0.5893590978839652
0.7065116014220538
0.5576971403013917
0.7318302195732964
0.39730938854764775
0.41964501283514183
0.4285088061761034
0.31380442868992325
0.5294260203298307
0.48366789290416706
0.4418874989465386
0.4573616078460103
0.4178059429508127
0.38177895236215625
0.40888924232530865
0.4671609011838447
0.47223738418029654
0.40914578405335816
0.6977087752652992
0.7184025316175336
0.6907647683763127
0.6408398586450157
0.45152942691227904
0.5169074172193174
0.5464951432696131
0.667678026120032
0.7272660065961087
0.7615457741099445
0.8817911555063199
0.8847743155109332
0.9641546130009769
1.0725497868619653
0.8125569908571787
1.0635956921530663
0.8922773378360923
0.9047614392937778
0.9928923604931856
1.1145091090974633
0.8782558008812882
1.5591325993967455
1.0557896921066625
0.8541907324486656
1.07185176877589
1.0890613984928432
0.9451952767290852
0.940260122305465
0.7473959846716524
0.803285199706463
1.0135385634860572
1.0600036812035762
1.1522326523107884
1.2225286192431677
1.0764659344625387
1.0158948468412796
0.9174447323441339
0.7248587294046298
0.8390637046888361
1.123716915632826
0.9509371746203694
0.7954363296947928
1.1170876760070914
0.9217637394271732
0.6115793239686109
0.8885397151367612
1.0862919495945713
1.0430338689879441
1.0654368279367992
1.1462171811126194
1.1399767949049084
0.9931325098404881
0.932890770076421
0.8342601174901646
0.861979869839852
0.9433494750327418
1.1420155758849784
1.0488472094106873
1.0773710951700888
0.8802723283647456
0.746024088957386
0.9217530289562508
0.6000326341482322
1.0783523059386664
0.7187017284755701
0.8493672656914101
1.0927613924772468
1.1694937281174995
1.0276032226110947
1.145163905241567
0.932843202600423
0.8495227460579412
1.0517179907382614
0.8562915336443742
0.8125569908571787
0.870047375748308
0.7109650082321195
0.7475090494269792
0.8944622370846528
0.9007926074164921
1.0618960621450861
1.088180608274298
1.0024182055304685
0.8003498782130997
0.9474037282144125
1.0890519580552196
0.8913293499406398
0.8562325094789901
0.7153718228638554
0.9543865375426985
0.7731651157081258
0.923367979597434
1.124228433059038
0.8202236825372975
0.7578144580665619
0.7397089722023716
0.8085573421405478
0.907347422332766
1.1305496861054345
1.1912886413431796
1.000599222866888
0.7254862626112957
0.9528363428745636
0.9637202560492398
0.9343110155405822
1.0677764984476428
0.9124394225719175
1.4090337819705356
1.3323500917460103
1.1919589384240974
1.2138614041295481
1.3368289745899224
1.0351766300554253
0.9517750569099788
1.0633898178136658
0.8500420767166849
0.7416429807420908
0.9810956547047864
0.7543709589454882
0.3811309162380938
0.1756589201793804
0.11180031291383999
0.13653328798151196
0.1367324015564325
0.13717950151542382
0.14596963298674215
0.15608346840683235
0.16642534951412996
0.17230418999888242
0.12103218144808096
0.11081439621730677
0.0916416051406362
0.1883858228372074
0.3392659447814581
0.14896827676530877
0.2160322917915436
0.29259208582803253
0.2063690182827231
0.19155325525844127
0.11903464395125192
0.15028418035692723
0.152118441272023
0.17217149582437705
0.19329545045423888
0.2537973652466764
0.3053512968148014
0.26961739324831363
0.2729257816590755
0.27510270704882894
0.20493603852348752
0.21795179147804938
0.21377191180196195
0.16570040877019349
0.2565423383092136
0.19994345216674894
0.2634729450468761
0.27650026152280166
0.2745912642531805
0.3710365378398289
0.2602625211816199
0.24006346111797333
0.1917557162397799
0.11742796290975095
0.12328135844729243
0.2023751407580033
0.19670421608505564
0.1062714978238774
0.19125839166968164
0.2149585082569062
0.22953136524371293
0.21078932433738098
0.1988360560858152
0.21258321522243978
0.217796017983341
0.29786458269597516
0.4214505792699049
0.6194319508852582
0.5578820577529822
0.27309676909518205
0.18240364462342493
0.18414382962701167
0.1501380262068552
0.11190777916817332
0.08001319551497915
0.12098757293764062
0.13066434936405696
0.12602031944612582
0.11866451333184609
0.1424539438646949
0.1061794536384472
0.1544989925772847
0.1831792491478888
0.20996064142331683
0.19668459330179267
0.2524167075376747
0.24150325318685759
0.4013333742642685
0.32156660693918965
0.31235277654328547
0.3293080804598748
0.16240325104874756
0.22157435251543844
0.227047771731456
0.29155398614285455
0.3061279367554282
0.22418803502929038
0.19292951631630562
0.32125348957743644
0.40725947019670194
0.5550756802425872
0.7262918696673278
0.7630677571243019
0.6639087726380142
0.8408065041632883
1.0624612136637286
0.8525771168488891
0.7267518524153632
0.7013005124752529
0.5791501690994132
0.6366299485204854
0.7329244389292399
1.122605210621102
0.865780123440947
0.9283378733861061
0.9780501804963878
0.6379246780266596
0.657399983114985
0.7069171514873372
0.8768660667667526
0.8094682081532801
0.8050346148769694
0.917687068722067
0.9699042326269824
0.9953715499657584
0.7927204387975089
0.5118678868853311
0.49188715600569266
0.549438210095139
0.6455234870743505
0.6766934997551273
0.6389891030292569
0.5530692735388172
0.5132545128178166
0.7459473237219035
0.8114610852369182
0.785517811874486
0.7896581294137557
0.5598760874592515
0.6343939139180553
0.6334081305065129
0.5903401109771178
0.7428427731794597
0.6250325425592257
0.6455527857375881
0.6190250324543008
0.6297064330155477
0.6123994397701452
0.5288475424203471
0.464379286042174
0.5074007066741326
0.4577549598875461
0.5144864886880044
1.1808236472986458
1.2754284928834665
1.3214788231604135
1.2739929591624484
0.9837045916345457
1.190813742064341
1.2192155209340494
0.9103433824928022
0.7184680886171325
0.796136188351871
0.8094788981611044
0.8240819813440716
0.9669325119980662
0.7811956123144549
0.8053369648828953
0.8496626095613109
0.6907647683763127
0.43284206195162483
0.5249287327218726
0.4343445364536136
0.44855901539070425
0.48757338923319343
0.4918759008080974
0.336814512509414
0.3697355818099162
0.38121096879721716
0.3642771913215129
0.3537503799943882
0.32479787703261187
0.2358520020330293
0.36871783597054564
0.3593309452453179
0.36710845719367163
0.3537503799943882
0.4597150614471152
0.42424691777514717
0.39463878049517465
0.5554617570834613
0.5553694539332025
0.7363789260928145
1.0264353511263251
0.9178935773521804
0.7402582413513281
0.615616467289162
0.7023181198044948
0.7376339679148252
0.5576971403013917
0.5447635828494398
0.5937939906677911
0.5709269826836582
0.9151638944439638
1.1608303266605524
1.4567069305356428
1.4355128498385532
1.289930150836351
1.2010425349923
1.1522647599208609
1.5840082890982166
1.33435349627785
1.6367253663479955
1.4386265253821282
1.509883253707543
2.1008286899739668
1.844468620186844
1.9118353037011153
2.044934628785844
1.4581230751838812
1.1359982357219007
0.9804423368493244
0.902416659674862
0.7443487347654256
1.0468496633540416
1.038403723729296
1.2028662368867584
1.3426396541989898
1.2982828929019
1.3254484235791715
1.5019250302245597
1.355570911938862
1.1374422737709495
1.054509451943635
1.0890519580552196
1.0206207261596583
1.0208363907317424
0.8008877845177292
0.8003498782130997
0.779112294351236
1.0640501678167134
1.1112626255307714
0.8868101760469669
0.8427253995412544
0.8772846223552548
0.9186784807449261
1.1197888105218834
1.0516346970709947
1.0109865699844292
1.0769249342011789
1.0164258722673343
1.2462856424994435
1.2201259224945074
1.1841036578382647
1.2898141866862733
0.9371973320436643
0.9502497336321801
0.9369724127219176
1.0293385914592819
1.0460002198297627
1.1153336781738623
0.6757457582921298
0.6187030854736775
0.9077652481959502
1.0136081817416869
1.0004702589533048
0.9426504735894379
1.1195830136440859
0.7725120004926858
0.9469234547527154
1.132001687996996
1.1717727334564954
1.2080734927342411
1.292136042368015
1.0325468024097695
0.8857164273734959
0.8857164273734957
0.9708325532154127
1.190813742064341
1.1048911514720507
1.31138712683743
1.1744112967237506
1.1524099489736421
1.1437980035136215
1.6976683820099647
1.5973430003536133
1.3901703526795286
1.9022464196343651
1.7039206055587004
1.4979655179955753
1.3397761688729697
1.3397761688729697
1.1522759897629842
1.0913051098171793
0.9096359225800337
0.6115793239686109
0.8543114573830639
0.942573564852688
0.9610310455283745
0.7973788985960563
0.6868673601357207
1.032186470701078
1.045048809086088
1.207229486650707
0.9078695567649144
0.7510752651883972
0.4481341218424987
0.21323361458917092
0.1917406051797945
0.16165699178955173
0.15838062662963784
0.15995316285695654
0.16291692176556444
0.1866811082821122
0.15367689671579293
0.15981241202790733
0.21558281246938085
0.15594402587335904
0.16678663913854844
0.1759821524956923
0.43916938724780463
0.3062615725210084
0.24368937211526764
0.2598967627536832
0.20323422986633805
0.23930875707549504
0.22429401621237363
0.19634495070663266
0.24390733392622324
0.2809223912028805
0.43321302354394836
0.4231817534329737
0.4104519697035579
0.27913641852454063
0.19272497149585602
0.19849016120196467
0.26724687787707785
0.29356080419262365
0.2577211041781753
0.28419153246292067
0.27373141945112767
0.41189699412070907
0.3486438264129235
0.2954901906908031
0.23062385102255079
0.2002144691030722
0.20453941540324574
0.16679115680299061
0.20578298581927215
0.20968184724519295
0.1772186254884924
0.1881639516971587
0.19056396334626957
0.2180689365299618
0.19466978320540987
0.19485789770998205
0.2080131186616783
0.18645182940461197
0.19320548644121407
0.23285220449301372
0.3948414177677313
0.5208330921914411
0.5151793449026453
0.39002162544613006
0.3001946801671054
0.22693999255541117
0.16057477201645484
0.14713489501053162
0.12012408621794884
0.09080251759647508
0.14407919696342814
0.14435298847977981
0.1031648498513338
0.11204192500392597
0.1464329596938818
0.1781303290836858
0.15936360952339412
0.14466866567920914
0.20719238089553785
0.2344636704107055
0.28433094607966264
0.25624302636926644
0.2560346559943623
0.23264986836422744
0.26331260718618144
0.22834577478755935
0.22881857121182467
0.27801181666377806
0.25421952610042164
0.31159177887492034
0.38737506468443694
0.49981314609920097
0.7614563235092944
0.8759140190911741
0.6831118864173339
0.657748212346391
0.7397089722023718
0.8465531987233554
0.9287675062389749
0.8958399429012358
1.0840363259463228
1.0834960730328604
0.6487370458194882
0.8676310834026608
0.80778168727512
0.6174201043944347
0.9036793103534827
0.9701659930760288
0.8463244372809459
1.3709071977663922
1.5025194778356337
1.4256961092481752
1.8070158058105028
1.5811388300841904
1.305103792854514
1.0435537683669718
0.6942611475729685
0.6742935454013741
1.109436109514506
1.2014291553007936
0.9498713802919554
0.944487884903669
1.0800619023436953
1.2597346478949338
1.3609368024903394
1.1261737423837566
0.8940151105864889
0.6590942245816153
0.6637976699448809
0.70485312109545
0.7475090494269779
0.6684260203465141
0.5622298294062305
0.5200753256789229
0.5172683714060764
0.6916400262770989
0.650274721605301
0.61220073426287
0.6237962365836255
0.515483488641704
0.5539766033333103
0.6915545878736894
0.8393083625142578
0.7418602859713476
0.5928410159605346
0.9097058090988159
0.8838546755530258
0.9662538475578971
0.9307071911732386
1.0898311835225494
0.8592226174146769
0.8351799031572417
1.1608303266605529
1.4196844283040482
1.306452289522682
1.306452289522682
1.0640501678167134
1.140357989836009
1.0869165485713361
0.6687718719840774
0.6067293226952448
0.5879292689441769
0.5706057582576005
0.909235277476089
0.6059590500499051
0.5495514513215806
0.33719225215810006
0.34107851671043576
0.6331202104175664
0.4509921812780797
0.403396054400906
0.37540786586995406
0.2700180202185363
0.46718888904512557
0.5177396323519168
0.47552931067921117
0.46985810612720186
0.37540786586995406
0.4214906816127002
0.3143458834064835
0.4034402509638786
0.461542252051167
0.34135669641282623
0.32978058359816
0.3104506393006696
0.3288004371668438
0.48718540938143756
0.39497642337279343
0.3127548493206867
0.3978145320463306
0.3228670183001241
0.4026529940576378
0.4996355077917669
0.40941122559323107
0.43109923532886074
0.48979872806126123
0.6139001468168713
0.8075716135100822
0.7038264108210294
0.383995353797879
0.8234703461259781
0.7348333017285124
0.5259779136850059
0.7880095297639352
1.06450760440944
0.7890015816906873
0.8221093048057027
0.9818344551787801
0.922801917945456
0.8960198207131662
0.9647529295566579
1.2809750721873574
1.1508341619204563
0.8935861516491186
0.741653072834536
0.7891863228613525
0.9100199484911189
0.9595930899102135
1.1476293868232976
0.9219436874746031
0.8024295777896387
0.8818588074846783
0.9355654333995853
1.1270439218253845
1.0488472094106873
1.0773710951700888
1.2337154086747923
1.2820553033395112
1.1729380093199637
1.2566244654354137
1.2147532208660865
1.3344714881398065
1.0694948192294964
1.2691546546110433
1.3083452090290444
1.0989224058173164
1.2566778790452937
1.1504165811160136
0.9441542612091924
0.7731651157081258
0.923367979597434
0.7303625567541754
0.8042938469334394
0.6337102405939931
0.811547514012186
0.8185337540602802
1.4812539231060995
1.6310091113849792
1.5935001116286576
1.4462755522883155
1.20131137224831
1.2913060719697182
1.2317496398469883
1.2832541799484085
1.4793756885362497
1.0048321831593612
0.812372232910391
0.7910866502221442
0.9289713866206801
1.1714893866561529
0.9866161670273407
0.8743611960674241
0.4596086290879403
1.0427151150094083
1.0827763644852633
1.2668402811701547
1.3050653285285052
1.0597181620869751
0.8908213919051504
0.7968807640886107
0.9584475421181355
1.025978352085154
0.9927439225285928
1.120217439361465
1.2747909848515049
1.2701737431817488
1.3195043535681554
0.9693747085046817
1.0314388656647009
1.186008868466681
1.034568755787906
1.1094152644132018
1.1451905805522216
1.1215878699606918
0.9344412938037503
1.119903507924187
0.8839406802566884
0.9130096959105239
1.1172554336511822
1.0681370017709928
1.3708835578890692
1.1682768201924971
1.2706130838784606
1.2598813800746502
1.058985535712313
0.9028986347487199
0.8456275856059992
0.7674580358991183
0.506074065259326
0.1756589201793804
0.116125222583675
0.08165969950046827
0.0824106482585231
0.0873214918429129
0.09108317107560794
0.09855674414040794
0.14855234160262776
0.17272840579874688
0.17063580656238214
0.1519909240375239
0.16231663889456135
0.2622782159684442
0.3850459374388179
0.3384468531118152
0.21560224130952418
0.15803971289171362
0.20384108785527907
0.26969385428091786
0.31697461143636785
0.35101205291540444
0.30963588417129634
0.31629007931413905
0.2700180202185363
0.3064892943367778
0.3016743387813141
0.34281696183488153
0.28645232522188646
0.28227241277012727
0.26333735809021463
0.33311515726830176
0.3707723905255903
0.44747572351923715
0.34439048291915303
0.23065706481059448
0.19593558290815255
0.20323422986633805
0.1725997355281198
0.2074693242620663
0.19055913970441649
0.1671862613990444
0.19056396334626957
0.157114943730806
0.1752769948283465
0.12328135844729243
0.15777007712092103
0.15788461372804313
0.18149630620346033
0.21614706305219847
0.35483711808766066
0.47356724817259516
0.5151793449026453
0.4127452810116273
0.2192559218258109
0.21174720368943536
0.16057477201645484
0.11190777916817332
0.08001319551497915
0.09820799407338811
0.11435823879791003
0.13383646141837607
0.09206718569729529
0.10167229009027628
0.1097846995838664
0.1716705676962794
0.1831792491478888
0.20350113957062746
0.2081126512289559
0.24930881140428815
0.2586140226969506
0.27967760212722775
0.19907900485072252
0.2244574198798328
0.2325575530004181
0.251088027605581
0.21887840236621167
0.14178222967182902
0.1419854739221248
0.18400494947525822
0.19647338201806713
0.19757075902957102
0.30324173845080304
0.38122757987051326
0.469027470859778
0.5933595374687102
0.6963154887377168
0.6827587448385875
0.7400965514125171
0.9843291426774485
0.936624138081871
0.6757471985855413
0.7557428002105925
0.7204970867874156
0.788362064573104
0.8339807443155532
0.821565490102019
0.9327114398411489
0.6503097010236228
0.6561442596727209
0.7648202235658755
0.8785544079816967
0.9402598447345006
0.7713108485711764
0.744183976526362
0.6776990379990546
0.8017055770473862
0.7977299834772515
0.7396596922652705
0.5273643810042923
0.5530692735388172
0.5773495659987988
0.6278334824619726
0.47030023083887085
0.5031213420924702
0.44934390367395743
0.43941117843710964
0.3658582172248271
0.39331419292894615
0.5850282569686961
0.7042197508494282
0.5930906932483087
0.6878509432139583
0.4895989220262744
0.4894144278400686
0.8274111758566812
0.8860680849218578
0.8434327447474853
0.7168332217629103
0.6997489753371836
0.7574471453491067
0.8339807443155532
0.7772606033718181
0.8008319614979589
0.7156668538671198
0.9810074423763542
1.2448654082194415
1.2640011163091367
1.3236461818739438
1.3118601519554438
0.9292650924681756
1.1986714705936694
1.1350134467702886
1.721904694605814
1.776972349506542
1.3536504718976312
1.3371125345815058
0.9957735568847571
1.1382483948345852
1.1903718937055472
0.9893224926890153
0.9064852417682898
0.9498015671303177
0.7206974457658074
0.43284206195162483
0.40574657899924016
0.48958759261698576
0.47239992121651186
0.535738308916504
0.4624326494336789
0.3760106740231841
0.35600870632746345
0.37191699720504867
0.46749399172386635
0.4052222088600881
0.4265617325364135
0.38161358991127914
0.38090191825153646
0.3794180734705556
0.3375744101565555
0.49425969899948347
0.5972402515849113
0.6982916681519316
0.599123559132078
0.5851554588374449
0.7603776036514416
0.535886258410024
0.5905810462682913
0.6386955241033312
0.4773029689784572
0.4158426084046386
0.5739281024288554
0.6029239252637993
0.5795641774638479
0.7114742856621264
0.7075756427800317
0.6389881227790178
0.9101099458152858
1.0022412653461794
1.0917576783170517
1.0509676237120809
0.929672046821181
0.7254862626112957
0.8510051607988736
0.9967056693185744
1.1478099210294839
1.1448384518247854
1.1221178963759875
1.172756630596732
1.3536504718976299
1.3045587883322862
1.497020102402456
1.5064561783596777
0.8872682023762901
1.0605393032924606
1.0727445453832265
0.9870131382713906
0.9509371746203694
