0.5962753645926393
0.3201392270946669
0.19216429645312755
0.23606035496767125
0.23413441570676224
0.17214822588832207
0.19749216163377242
0.18238367964812255
0.1603659984224749
0.14650765272053387
0.13846571536104063
0.15201275999497624
0.20888180349360944
0.25106432882001956
0.28733920502275184
0.2720874292574832
0.21193630085582257
0.147407772339307
0.2029341600712868
0.47655684663220294
0.5499563889142557
0.7995967200697731
0.7407763238981152
0.7501907372252825
0.7866154260471995
0.8030664182372982
0.7041081244967177
0.6117427394258451
0.4981159802864578
0.3057314235982213
0.2929121895878538
0.36839162883765375
0.2723598919234265
0.2199829501510947
0.17004634057455312
0.1432599362069341
0.15567639999144026
0.13079352597444455
0.10283453745719544
0.09725686520765646
0.06550459558495765
0.10083689712647878
0.0812082445011754
0.0947978702518548
0.09284218085009738
0.12408951208333384
0.12756050948497805
0.07079742411235816
0.06082467390512721
0.08210048293239297
0.0823060016875996
0.09542685319754997
0.1824655188417089
0.2697059679807555
0.6212367812095532
0.522960393308941
0.6029099053793862
0.3413366814418985
0.3209938626708278
0.21436273839562
0.2861969280765695
0.3214373737842063
0.2679477294136991
0.1614765542695387
0.19796434670491067
0.13482295534213232
0.1916637458976183
0.1613367501333904
0.1413100611134886
0.15702972952467795
0.1621140225118081
0.13699586228694427
0.1355641652572982
0.16122036202016515
0.1776959899769899
0.2087577124298049
0.2173107842199121
0.267025968761531
0.4110752290904112
0.47594401566879074
0.527321739644864
0.4953867852579513
0.6098375946554717
0.7475369984675378
0.867521577052886
0.8762076303086018
0.986520398705872
0.9979494575071889
1.3792174822379732
1.1606656368093882
0.9720558508926213
0.8019588352246417
0.29522140077173575
0.5083262965463158
0.5505776451679343
0.46624349937780957
0.41657393577333646
0.501460330480794
0.5492183308479793
0.5276819647153522
0.4795088002165719
0.6053441460888446
0.3801591851302257
0.4104083278543369
0.3894804766758542
0.4484537379569834
0.3706306469058694
0.5279438147466536
0.500005826827717
0.43874509810876283
0.36119597744913334
0.5496974499409577
0.8508855447881813
0.9595930899102115
0.9663918375185567
0.8312458893534438
0.8339807443155541
0.9924660132147973
0.9988905982869846
1.0443103148451454
0.9504848441377022
0.8567058140158464
0.7133112508625231
0.6690589877225878
0.6805963242103822
0.7281626124486361
0.7113888123308699
0.47775247889824335
0.5130290127463085
0.6224348609608976
0.7396455766461053
0.8557644987867586
0.7725120004926862
0.5811034057013215
0.5972000765912654
0.7295738442980209
1.1454501445125367
1.0960284948009253
0.9845920557876097
0.6120974934474308
0.7377556651107758
0.9821130622693985
0.9803466691673287
1.1700856010638567
1.170955617173582
1.2836065867539068
1.1676187771285342
0.9184781380068131
1.4682727791400785
1.304167206342828
0.9104272295378846
0.9166051777370608
0.8530537714502364
1.1320628375302455
1.2716522321919788
1.117448699944936
1.5461494111360932
2.057937724496845
2.0057052158233097
1.8484316697144452
2.0578978450701992
1.5356681425330572
1.184840748540002
1.0845285199572179
1.1023783523340072
1.138931226458613
0.9528937531241971
0.8672454433460305
0.5145150905199944
0.4807869693870616
0.6012087711331324
0.5280036370790883
0.37416753706780753
0.31035774603824334
0.4537832701963445
0.47590580313684744
0.5042266136132157
0.3750568137634905
0.3873234722932196
0.393443956863008
0.4115242638787176
0.5100818917311322
0.5346014119049115
0.3829445917231473
0.43221229282953544
0.3771080670583066
0.4274557777446575
0.3464374830624485
0.4369015725470454
0.6030217310999874
0.5799756528171356
0.5453441611488822
0.6088563694545251
0.6041559782640635
0.6359596711214551
0.8759630919517645
0.6316335964411111
0.5672805502699204
0.6228185597155181
0.7883760222891194
0.7850785379024977
0.7297802859647132
0.7043003676578453
0.6407596038352853
0.7100716024967263
0.6930653813885834
0.902521074258456
1.081161676684975
0.9776288064824876
1.156629863932481
1.0340974775978065
1.1147923639787867
1.208985577769484
0.9977588472153798
0.9977588472153798
1.2628323935472352
1.4992539272517487
1.5690775584618546
1.3000425409422984
1.3072987541644256
1.554302973947121
1.1549347198053055
1.1612825496640395
1.2606206194172294
1.0602899353571693
1.274307935633669
1.1729380093199635
1.0846888517937998
1.176550357014654
1.2221171135754787
0.9928021005861117
1.2428759179050366
1.1476692207053225
1.2598813800746478
1.0203249107171166
1.0958321704195884
1.2868907965088856
1.218774796366818
1.2603832624805271
1.1976717277040976
0.9774519204332521
1.3922784382158342
1.4755095743790951
0.9426504735894367
0.9740536989899262
0.7789290857610265
1.0072720220672167
1.2069397373694866
1.0689032277990675
1.000874927104722
0.5698352242730711
0.5665941309727764
0.5623236489638856
0.9125972666244445
0.9559339083833148
0.8497537860901551
0.3754278667882947
0.3580428882330039
0.3972647176381271
0.5222947909470852
0.43670563669260315
0.6896934401573164
0.7398612362216908
0.7194268284345607
0.8499485377598993
1.0604393234893252
1.0704659396412846
1.137442273770951
1.1654066049256102
0.869312647405142
0.9528286133328223
1.0234162489330727
1.023416248933073
1.081161676684975
0.9883934736554529
0.7247888495853331
0.7806112323606601
0.8394781565028097
0.9633337482458639
1.0253709311890062
0.8082441975100142
0.8631113933565767
1.0141078647319266
1.238422007193244
0.9979494575071889
1.1649342646466483
1.3281605019461824
0.9938842891926123
1.436308152751689
1.4369940320000294
1.4687234511658684
1.4761600756809532
1.6869106819822683
1.4944256875347628
1.8816970909910236
1.377945636523875
1.2580356678177065
1.1018795914853154
0.831801363748591
0.7382561376993325
0.6807142442024959
0.5897068544861942
0.329291897553806
0.16413713327680537
0.08798576722864754
0.0631418799481603
0.08331494249262456
0.14542783991541533
0.15552376596755366
0.19388961503738616
0.15521573635227778
0.17672840736898165
0.19791983745748715
0.18854903937396109
0.16551940824389233
0.1842547836162918
0.2990606189568361
0.3750568137634905
0.5028639845772288
0.4142816005704052
0.5135705834888364
0.7490974662862605
0.8002903584572206
0.39587674425057406
0.3914771382040945
0.3600180614469352
0.3749858243788885
0.3994115790017447
0.27236986436381166
0.2214376666772646
0.20268328326161977
0.17911824283693104
0.22897054754617718
0.2010930146363463
0.2152276223613048
0.18187369322467573
0.19240651842676512
0.18299748631655233
0.120512136939097
0.11304370408420636
0.09969593390891272
0.10358933277192171
0.10652018231901869
0.10784618949945199
0.16128840428850108
0.17919210883245895
0.20975341192292346
0.22619697392511534
0.22331670953264646
0.3934329913015571
0.9042498811387549
1.112895343294352
0.7732378793487479
0.6533929304239796
0.8371408591572443
0.551287208884178
0.5150789728597518
0.4051421063857426
0.3844569998572959
0.24347858589696347
0.2401223258538341
0.1596111113087484
0.17104653934309202
0.16532014928818226
0.10582054965758762
0.09837570290130493
0.1077681817932093
0.09672551501330773
0.10199030955150906
0.09536677907871025
0.11457657800099098
0.13201923905454313
0.17497403963331437
0.20607780440771287
0.24295913102524855
0.19341020663531694
0.29343376907237373
0.4118665888847737
0.3190282408004973
0.283047132383638
0.44309544667921374
0.6659919881876437
0.8344374545717647
1.1973393878761187
1.6365737068836719
2.1803857391737713
1.1419837730077445
0.505381231289742
0.5121372010154573
0.4259720993078471
0.47276596576893076
0.4018771056918967
0.41570185374799723
0.4116277976788655
0.4676776491993849
0.5403765826895062
0.39937563613065435
0.3799489193924191
0.43842909556830184
0.47208449484422393
0.4795088002165719
0.7277412258591184
0.6707227869684255
0.5850606500441572
0.4734278661040549
0.6434176775519412
0.6878087877491045
0.7214113107584279
0.6371875913436671
0.6054859555863601
0.47219954191372676
0.5847599597831757
0.7332024498917545
0.6533929304239796
0.7725120004926862
0.6294535958958314
0.5595151688419762
0.5933286585530474
1.341099655137709
1.5656754230567878
1.56539773656292
1.4354381593409349
1.3337664952540487
1.0985275539694865
1.3525044520011482
1.317759724190374
1.305710562133537
0.7834025186380887
0.7113888123308697
0.7369136506621345
0.9073771270507298
1.2810766582918443
1.2064665399958614
0.7168794572416795
0.7852328228179775
0.6790563368652374
0.8447785023318505
1.1014859361088165
1.0360381897165953
1.0611291642376741
0.7556343673588313
0.6606755309266668
0.7450839179447719
0.7477610711211372
0.5936471645240012
0.6491467312207169
0.6565045835063801
0.7507435122419293
0.9171178946934612
1.1304874399550031
0.8375108306322359
0.735964677223444
0.6766627350961113
0.8140566909963659
1.054980641254059
1.431837587529817
1.476159753685574
1.141141241890227
1.2735763560894722
0.8321238081690147
0.8093322261694353
0.4802316166442443
0.42151632421545165
0.3945803920412801
0.6012087711331324
0.5280036370790883
0.46938449262858667
0.39450320329798516
0.3849909213599001
0.46236496528056575
0.4363871432282102
0.45916621544072644
0.4716634263928765
0.4214563133719687
0.47960113771116836
0.33275414806788156
0.47385065311794244
0.4899536912955263
0.37416753706780753
0.39241720096267996
0.40757465508199997
0.47627117196704616
0.5421474528684002
0.5086698905201495
0.5177360038835739
0.6417817631939341
0.6957180837898126
0.720782126349919
0.8216228923239625
0.8221175856632068
0.738540489742562
0.5651093070117049
0.6152025039541924
0.9967837867267242
1.021459221326532
1.0360758325021924
0.7716157842936313
0.8701669852996284
0.8056214823710262
0.9568343671688828
1.2642198190467326
1.397830797372885
0.8220551886344438
0.75225928113434
0.7565408201354377
0.8379599845797036
0.9633337482458639
1.0548767924072477
0.8082441975100142
0.8683299526813459
1.066428370908612
0.9443865864619921
0.8581776695499332
0.6795616365143039
0.5636623733827089
0.7356681250197045
0.9368067073400868
1.5296056582913158
1.455368087777702
1.5251772099672345
1.4900606111938743
1.0350052428349716
1.2209353913347214
1.136905160284251
0.8153340726586823
0.9967125169602954
0.705789892781185
0.6737114502213034
0.9456751700947092
1.3251756193446595
1.2331017752469249
1.155835801987091
1.0979975031754825
0.7516551285357663
0.9280183561106301
0.8510792698364141
0.7968517790999764
0.8231318302635295
0.8273349233772622
0.7821547685927304
0.9162618027575173
1.0308530832472595
1.2049694339385384
1.2600705044772473
1.2444759870475652
0.7893753834158644
0.780725191328984
0.941327842591136
1.1785985167871142
0.9928021005861125
0.801761193669433
0.7611446979328709
1.0621752221977216
1.2080992435478315
1.5725303347567516
1.8107699877691226
1.4715183546006305
0.75225928113434
0.7565408201354377
0.8379599845797036
1.050440008917925
0.8022388210048312
0.6601115723010015
0.44640272437922307
0.4562472953218595
0.8000227057867055
0.5417124611788463
1.003041902055159
1.09689028190987
0.9470243668314673
1.2349087097560838
1.2500757135721738
1.0470790523625186
1.7329940242320663
2.2867052898176614
2.096152158051384
1.7109627387632977
2.062842492517587
2.22076304473567
1.9875967499218186
2.1099837837619813
1.918196479751525
2.0701966780270626
1.7430207653533853
1.5180008554825146
1.5079897254225336
1.2547613088556453
1.0825864828897451
1.1972080962850995
1.1741366386216778
1.1168619299071412
1.0041313619588033
0.8356093476584465
0.7893457491511616
0.7521125880427432
0.6519300356349079
0.4573706446242232
0.47010172236940834
0.6332833981551967
0.7804593842700858
0.49127274981323815
0.2094780401758391
0.15744538296249705
0.16863919625983498
0.16694410508833665
0.2388799507022289
0.2726411237882347
0.30112936074409513
0.30694645946619453
0.29925151942824635
0.2930271486276678
0.30534765208134845
0.1936146497220892
0.148757129315318
0.2089295747062327
0.5433901229287206
0.5523070777490009
0.3486641890568175
0.48219194865041126
0.7644677892613487
0.5916280421316041
0.4441649092394873
0.5034017126559284
0.3987748846447699
0.323876847287296
0.25431226665217216
0.26216248354519894
0.2134512790396417
0.1940960062615228
0.18087889346758124
0.15888121540097216
0.1836773246611553
0.15420812728841674
0.10283453745719544
0.05666090650585901
0.06462762564477983
0.0915103103266994
0.09871366792995549
0.10216690721289343
0.16915418789641423
0.18158683118779725
0.1580906411809379
0.1654411664049143
0.25642523960789315
0.2896785553125258
0.30565822118333347
0.4480933717534676
0.7531367829489329
1.1923166485049501
1.427598604489904
0.48372835561516414
0.3804858853550278
0.43850675953422286
0.35943048132959815
0.2328963423089641
0.26922856608899987
0.20898994672207105
0.149357420626936
0.1406191295589037
0.11934754436349727
0.1221275991577198
0.10022312354729863
0.09498957941841686
0.09536677907871025
0.11457657800099098
0.13201923905454313
0.17127175866716646
0.19863146261656678
0.24295913102524855
0.24678358064351252
0.29343376907237373
0.4622001829794645
0.34378102787971176
0.31338961102292484
0.3527995513236868
0.4889911172015344
0.6056398875217797
0.5973997405858563
0.47268825162996875
0.7367785055574152
0.5240502249714027
0.3792091502434336
0.4259720993078471
0.42622409376469017
0.3579595129905634
0.28746798487346703
0.2745860026865168
0.3300591731870056
0.35662353180328127
0.4006557354247864
0.33561840287726186
0.3068355011283004
0.4597718313617209
0.6194055777447224
0.9180541401689876
1.08027580438313
0.8587165450339578
0.8207595454146023
0.9394843197875087
0.5815786885640072
0.7549571455206787
0.8208075928065898
1.253240357237858
0.9189559607864739
0.7524826034473825
0.9166976873829489
1.189288232286923
1.0410216796403642
1.1392643828244355
1.2172918915805353
0.8675045810022645
0.8250094689111593
0.809213246629766
0.8157132788942025
0.6612902728829291
0.6155954094213723
0.38643594904782247
0.5046275867795312
0.9389399874174321
0.8791916710162402
0.9573146477150404
1.0687203962749423
0.9351692894462517
0.9186112518669437
1.0183271779362337
1.0523174674303588
1.071429000373965
0.814487103534769
1.0939295795675672
0.7628919950210514
0.8898603457472605
1.1264412440475293
0.9749423144986881
0.7901429193394411
0.7537060251358667
0.815020070921082
0.8356339738652718
0.98894390174279
0.9527682149834923
0.8526927968275563
0.9290532072777018
1.5258314185170492
1.819800544019087
1.9596056792873309
0.9091457751239523
0.711693455291329
0.7952579321678144
0.8435680060309912
0.6525058202013088
0.6036277391872465
0.6356481050562204
0.6205715535254315
0.718367240255635
0.7365267422684112
0.7079453585918153
0.436259342177687
0.4409323266099303
0.6845752534831612
0.7190690357034861
0.6467584149856603
0.3706821455877729
0.39246271669134863
0.3595239519804102
0.361568768657508
0.4369015725470454
0.5815786885640072
0.7407763238981152
0.8702687391537289
0.8065196255626321
0.8104796580140339
0.7930774358110382
0.6408838657254299
0.48225226142449285
0.2246343008261522
0.3788069141009615
0.5910453327653917
0.490352032631382
0.8116573314374468
0.7877717504206277
0.7535858153017527
0.6300415702484726
1.0502375335668575
1.274761916716078
1.111658145488822
1.2633024690323917
1.182681593457677
1.113830311531111
1.1304934841827505
0.9333551778114884
0.8454957213226079
0.9454584357243694
0.6279285495168243
0.7349558197846562
0.8098727536826626
1.1119440684827644
1.0364949343063965
1.1521427050362936
1.1237327306881422
1.0064153689405657
1.162367651391953
1.021000059467842
1.0319055094787775
1.0466042672072287
0.9207548760363602
1.7423720398154896
1.808113449349222
2.1476354096494386
2.4719063011587785
1.8696761049715407
1.6583660521176569
1.1622791456914376
1.5405077483812202
1.141886417940842
0.8092474030356444
0.9382302199299909
0.8478492704712411
0.8107659608814531
0.8945111429739154
0.7959918586619092
0.8421223726222322
0.7823464853002943
0.4965727090403459
0.8548908731816839
1.1198516358642738
0.9516779302250836
1.2685100860524041
1.0426113043608312
0.7274505836141179
0.8487660196066149
0.9181908929273156
0.7326252409444995
0.6940232369140898
0.590537833741241
0.938232963073573
1.0470047113656498
1.3732088441097396
1.1280553498964894
0.998715721650606
1.2909658742293981
0.9551898125733058
1.1077000938003363
1.1863882268074448
0.9967694485623737
0.4621132741594115
0.5612247168350581
0.6729861822203538
0.7615400122028786
1.9859339151857507
2.0254241398744086
2.421996833520917
1.8293818686241805
2.1033631165662094
2.041011168994309
1.7161654914325242
0.9468425425816592
1.1511001268667787
1.1864042169132045
1.0822632390410276
0.9607582504126924
0.9935636349136228
0.703365084818948
0.7353821142976334
0.8192084204093074
1.0341961143558098
1.1237327306881422
1.3648307974895775
0.6467588377498468
0.8051036583329734
0.7045851797304394
0.785257523445373
0.7868798232729791
1.0895855558161496
1.137493085921378
0.782826857196832
0.7501919020573432
1.1065143994926643
0.9471696461629174
1.27918320348008
1.0402154730380584
0.7848295487659145
1.189579929650057
1.3505986039335298
1.1797593583685488
0.8649256724312464
0.6109290347095067
0.5447813208617434
0.6495762258681276
0.4939209415545009
0.20198543047618006
0.11687019845866169
0.09002850966456247
0.08466024824122322
0.08212278875006608
0.07182158711375944
0.08517866241843648
0.1007686221680743
0.10167720176774636
0.09313156882640912
0.07171116137830098
0.05078473954223769
0.07474713368850834
0.18055780265329144
0.5380924870534575
0.8137843695441653
0.8574577304185874
0.7684880676599152
0.6644876258202348
1.0138907503768102
0.7347169960820468
0.729926519379187
0.6707063579570465
0.5818718647943206
0.4827616444759246
0.3691776692512923
0.30254323840984704
0.24619681745429858
0.2161747746937479
0.15500103489233039
0.11092127485590242
0.10407621864985132
0.0565268878063201
0.1155056861617329
0.11622448706601884
0.11429466434360021
0.10488653392489743
0.12779129770716882
0.1310799012680488
0.1656376227997742
0.18312725564916538
0.21166385598184037
0.22398903969674794
0.41259415041333175
0.5840335805727904
0.8214475362287851
1.0686984891275229
1.0360727010330333
0.9841205025865802
0.44308671552888773
0.32951775589344245
0.36548756614410954
0.24885173096404598
0.28222340854049216
0.1767159496141674
0.1785007777658099
0.13879590194829589
0.19281008334451447
0.18265482823790385
0.19493839673309443
0.15348698563104635
0.14230115679534605
0.16232011119307319
0.19583569998879388
0.18156066392079567
0.20387449186059697
0.30998722084006236
0.34423668484498543
0.4253175697154664
0.3687845625687467
0.7592943155799459
0.9684563421404178
1.2766836851969827
1.227613272943419
1.0781494501000015
1.1064497519941745
0.7709382018038272
0.6049261613332474
0.5185825611162893
0.41265913539850263
0.233321137075921
0.24151545516766199
0.25192788709427455
0.4099611354056514
0.5339167117106262
0.6168160397716672
0.6084208345550971
0.5920525499867767
0.7914945168694906
1.0382693910297838
0.8872548439244514
0.8112187031796498
0.6769916147162743
0.6658498528231922
0.7917847250702055
0.9303620549554137
0.9527039689732466
0.7997806227113656
0.7113042234447072
0.8056654755583185
0.7944326067055543
0.9109650839196238
0.6119320785080234
0.5681351306293756
0.472755860188501
1.0083743900896232
1.2498299635956267
1.3302847581812305
1.3612123842601567
0.9965486978419865
0.7636955633178967
0.8057720558160876
0.6959450149247676
0.6575801367388403
0.6797108054587415
0.639071527779052
0.5769870799733405
0.6218896297138158
0.7765140364006554
0.8457225971983386
0.7891269653615155
0.5780663928587075
0.5048577509388474
0.8528829078801081
0.9679046984104146
1.074808273293789
0.8538718721826266
0.8557039961136432
0.7826596280740235
0.7283919642872505
0.7476294812178337
0.7340023387898522
0.5116332161008955
0.38344819283612464
0.34426936773411065
0.4791288493267538
0.6738632862695799
0.7099048073108548
0.5386370714370731
0.4466214851754781
0.5447813208617434
0.6154141107584847
0.666429994573837
0.6602822487253625
0.42513769162998616
0.36119597744913334
0.390330758433089
0.3706306469058694
0.5046845815237058
0.7802837536203481
0.7824654864809488
1.1888492849677477
1.1305467478697337
0.723298390971978
0.33524913203808454
0.28362453400406434
0.33319119555059734
0.3885184453129264
0.23879746398077986
0.3225601637703751
0.34619385722992496
0.2944443985141433
0.33341648101974625
0.439587661205275
0.5265377798272721
0.5433532981485487
0.407473537076834
0.6197901753366782
0.6125798787257183
0.5763142085036395
0.4778234797276556
0.5968962036764645
0.3399505287113733
0.47960113771116836
0.5843518766524486
0.6792479486465534
0.6003248110487227
0.3754278667882947
0.3915514270232381
0.3972647176381271
0.5222947909470852
0.43670563669260315
0.7660323096975964
0.7097576260467725
0.662985749830678
0.9739395762368028
1.1403579898360108
0.5003226518550298
1.3110110124207495
1.2649940185081971
1.204680422205965
1.1998193140009852
1.1277690984746318
1.1846977555181843
1.2646999319168226
1.1620147109794297
0.9873627763863646
1.0420721035421066
1.2766135661941178
1.3694407635851418
1.3097970751787915
1.2135311024183049
0.7540216951506504
1.1203540608758369
1.4655551965813256
1.7970782311161564
1.4036468391129988
1.0220161159527659
1.0818812295319562
1.2865677139380622
1.0780489865411433
1.4280228612849426
1.8920154039700954
1.6218578666403067
0.748067654698774
1.1166564114827366
0.9977715754679746
1.1828801420980144
0.8970503882199369
0.9403229307374709
0.9938842891926123
1.4078634726839923
1.4369940320000294
1.4687234511658684
1.4565951570845344
1.221632543875688
0.9994798934437575
0.9091457751239523
0.8903148938094215
1.0489324584166277
1.0064729443387381
1.032181953798087
1.03044428019812
0.927426754077564
1.1139718091943163
1.0767442554219053
0.5003226518550298
0.9841530761054098
0.7961715165137884
0.9317603937905827
1.0540925533894594
0.8656393951337725
1.2591760869728377
1.278575314616621
1.1770526901733145
1.1998834164941594
1.4494296593036253
1.0704518865494164
1.0704518865494161
1.3104744073238614
0.9944363937940129
0.9739395762368028
0.9379885295114225
0.7475875719802577
1.1124045939529363
1.0411050305754317
0.9028830594384146
0.9281274605585448
1.01815877858781
1.124713665818065
1.1746760610385543
1.3767479297902898
1.1660646089283553
1.3478543103582135
1.5916421418813138
1.2187539618486716
1.452174011054394
1.7618060088846665
1.6148594635997173
1.1902027627145055
1.3300603915606208
1.3406647485146301
1.503286951996729
1.1399767949049089
1.0461745294926794
1.1810121979127615
1.2936440160611804
1.1618002122954925
1.0109295731144647
0.8751375200704272
1.0140402531267876
1.047966544381543
0.5151349684327279
0.5130290127463085
0.5240502249714027
0.3804858853550278
0.2062555992431063
0.1436380391818478
0.11323745416027318
0.1603659984224749
0.14650765272053387
0.13846571536104063
0.15201275999497624
0.20888180349360944
0.25106432882001956
0.28733920502275184
0.2720874292574832
0.21193630085582257
0.22242636398915266
0.14165402202560118
0.8564700606422151
0.43504529656911384
0.5523070777490009
0.5619106675029858
0.521635962164004
0.4824116946544912
0.5657997068736523
0.47859159388622385
0.4090461150685553
0.27236986436381166
0.2214376666772646
0.20268328326161977
0.17911824283693104
0.20486600509039674
0.11600097433796218
0.11205719657421259
0.13046003897461653
0.1395614951059786
0.08368542271392942
0.08925847096911113
0.05748986927579973
0.05637420123354425
0.10095282891545003
0.13872113504851633
0.1435967715963855
0.1325961908331419
0.1673833509811564
0.2298424485878623
0.3263663193994811
0.5600324374132052
0.8195953367131704
1.2614348383628795
0.6923210507770453
0.2992281876883327
0.2695881577662879
0.18381321541192117
0.19220667737975827
0.14427241192561652
0.149357420626936
0.1406191295589037
0.14079286349062714
0.1226184624221145
0.0680511295666923
0.0720598572861956
0.10127555067718208
0.11649157931858832
0.18663914447456367
0.22622603627796653
0.31082248516467137
0.3533013864295459
0.3983321613291596
0.34601633332821224
0.34191448020494436
0.4526246681113159
0.5138250655154667
0.448711833998875
0.5119890138434506
0.6696872693099267
0.7824421713389553
0.6807854391765374
0.7696647058707626
0.5418186927281764
0.46042637225575
0.425725064180608
0.38508200586432406
0.41664547096114046
0.47775247889824335
0.5358253579671247
0.47557243142258027
0.500360767006178
0.5279438147466536
0.500005826827717
0.6463010875088824
0.6085487498310006
0.6383775890674498
1.1103023398279646
1.1213027824845698
1.0603345723991655
0.9755302654738421
0.7804314085154543
0.8739906247125399
0.7030052514138627
0.4849145678859379
0.5000125156556017
0.5735618965195732
0.5685150485901126
0.6603839151913099
0.7884592665629532
0.9109650839196238
1.054612222849396
0.9289719475550274
0.6752199701617482
0.7813131471847029
1.090017261063808
1.0264583773281182
0.8131429764853448
0.9950695747802027
0.8712703796551263
0.9875056011783263
1.1462185443326158
1.050671015318763
1.0661751189408042
0.8473964568794197
0.5539551779324113
0.7455606605576878
0.5752399279211587
0.6033895350226935
0.34378102787971176
0.31338961102292484
0.3527995513236868
0.4889911172015344
0.6096289798341565
0.5973997405858563
0.5862931425670665
0.6120974934474307
0.585160458269358
0.5573833238088146
0.5960681112309291
0.5648713030756383
0.673237755671707
0.6501589809160211
0.8258929879493314
0.5892736005133872
1.0219225878672415
1.4445437775261827
1.63291645229915
1.510324820396177
1.5797636160131434
1.235026036319101
1.5137429045386628
1.298500093196124
1.0358906341699363
1.127164510019334
0.6156145542470242
0.9304598316588211
0.7809785632651332
0.43846253119870776
0.5184064227739937
0.5510988154151129
0.5306419353620697
0.5793067743334621
0.5094382113530068
0.5220102986609086
0.5503452701325272
0.5674321041080054
0.4027174752151519
0.3122704798896814
0.2246343008261522
0.41676483209337295
0.45785865766675216
0.3781076888841137
0.5061822606257014
0.4862336258181275
0.41641506144372675
0.31035774603824334
0.4549920866550337
0.5093615976080285
0.5499563889142557
0.7685202369492108
0.6910710557269889
0.7332355751067673
0.8044260631801399
0.8857058954851396
1.0048321831593618
1.081395154521497
1.01634246155334
0.7950880161963081
0.8268030125513223
0.33951570947252846
0.6726374853380004
0.8110388718284907
0.6756927413868422
0.5924110772176859
0.6434303177897233
0.7740156602287345
0.6775155915087905
1.0276465381976663
0.8923571562546208
0.9430028925231335
1.1106809070135515
1.5717825214674355
1.1554072140435936
0.887857288355667
0.9306034975427215
0.7572211544582944
0.8183943210540123
0.6686143658325174
0.6744189459134013
0.8195458390505372
1.1444349088340755
0.9776288064824876
1.355234083298082
1.3112789601452368
0.8255097635124568
0.6471252577360058
0.6432369553152917
0.6857614424825845
0.5665540599785391
0.7686607219252206
1.0071484586572736
1.0813250566727157
1.4488632136804804
1.199104083236754
0.5327896625982063
0.587914914116304
0.5088587119972228
0.5045277960565238
0.48099984166916465
0.5016752679761908
0.559630779699847
0.4308463231771853
0.4680427252716051
0.4354587029319358
0.5177360038835739
0.47440288502653616
0.6957180837898125
0.7892837497014437
1.054130903494046
0.9378135995516097
0.9469947269535793
0.7986026165835948
0.7835553746969537
1.0004947510814874
1.2642799221447953
1.11452442764329
0.8024814373978422
1.0758513300269528
1.0470215101911777
0.9206795732777362
1.3281006533622177
1.3704852076292868
1.1382625688163037
1.0267535123570177
1.1188385242732226
1.3215081752091347
1.2425210840210834
1.402821608108558
1.3997724093206685
1.301571685097223
1.1851974724496603
1.3077377319027268
1.0865926938245911
0.988310501072453
1.3525044520011482
1.2504999983256613
1.3677153653869376
1.2488205274936677
1.1076800743662731
1.4626771590751644
2.11272651882665
1.321892872539004
1.2202434235929789
1.6812044403808666
1.6025210509795569
1.0634250979760975
1.250618930316346
0.7719011333778419
0.6436334312652895
0.6956368769807304
0.4866501165086637
0.5048577509388474
0.6272784616021949
0.7067468505329383
0.6514155679011262
0.6243634230539911
0.44515311731028157
0.21272889805945908
0.14211800581869594
0.09002850966456247
0.09762573389801538
0.20614902576131303
0.33401845426616805
0.3681126161526779
0.47803599767648325
0.7038822787592025
1.0642067021905917
1.1606656368093882
0.9273746033782939
0.6722976948238366
0.29200186435295605
0.16929584874009804
0.24645162308757065
0.3488092829012621
0.420949011042342
0.7311721964138475
0.5932503574719206
0.43479670011367355
0.23167647639952652
0.1252937052985911
0.15121025701355525
0.1243131347713322
0.08210048293239297
0.12917640713077527
0.15275786371384012
0.17732993940369415
0.2316694999331859
0.23176361129037934
0.301438334800604
0.7418581224667108
1.364820086416066
1.017788141313848
0.8183179179573197
0.7594961236106187
1.2067759070621262
1.3541491059456126
1.4736676551431185
1.3648789353580018
1.2280666216368608
1.0332248085002123
0.73155769293263
0.591429208314816
0.7243054606029531
0.837652740669892
0.6184454869699034
0.6896934401573164
0.7398612362216908
0.7425190010682495
0.8499485377598993
0.97530624033238
0.9915616524383641
0.9515707717819315
0.8022840408757784
0.4965727090403459
0.7465780446992121
0.9258226085222595
0.8970464287379789
0.4354587029319358
0.5283019757037375
0.47440288502653616
0.7750440967603539
1.19606365829126
1.426825841352526
1.5059476548608897
1.1345835414016252
0.9596638895691322
0.6887591675615606
0.7675652043007363
0.8277816545591979
0.7819102159035006
0.8553471601352362
0.9330871327990872
0.776220288933175
1.0207398438485296
0.9762054325048336
1.0927287102014172
0.8220551886344438
0.7626249482349154
0.7425512175018009
0.8635178373791598
0.9176662092820684
0.801761193669433
0.7611446979328709
0.7501907372252825
1.396694820039336
1.6329164522991502
1.5838916619831074
1.591307617235156
1.2598813800746507
1.0368252331683516
1.5022562080528263
1.1606410571819172
0.9778724191865278
0.931082467955323
0.7678128401643302
0.9380148158202101
0.6119320785080234
0.5681351306293756
0.6870515836293741
0.78400695408972
1.1648374209487502
1.0256183655997944
0.9661367397113968
0.8183179179573197
0.494530420943627
0.5991825973115291
0.549994734800078
0.5412604430613268
0.5399727068637415
0.4480368318944918
0.3383943195112209
0.37641240027554496
0.40969311483389487
0.4339945145499433
0.5006623869125717
0.5083627449719684
0.31719217677815686
0.38461070613826187
0.3456726866541023
0.3674873203128099
0.2561465586843853
0.33110438626988353
0.3565260564004941
0.24178604503499915
0.3337011680664659
0.44931650047568394
0.3801591851302257
0.4104083278543369
0.42488701203929474
0.5356342349682376
0.6833505487771929
0.6215232462187351
0.3811803972616501
0.4376443030750999
0.7261333017978108
0.5961897772411879
0.8011873230103264
1.05963808570646
1.1399975600046683
1.2065382234571718
1.3045587883322864
1.285896880462148
1.4626771590751644
1.451688134766965
1.2832541799484087
1.1632943094624495
1.4773570565388183
1.6168451020314432
1.5526394776011367
0.955352685455925
0.9899755313787248
0.9201782750794307
0.8912194066532106
0.7049235000881017
0.590537833741241
0.988615171395165
0.9185024328466334
0.9996166413566372
1.1061789784583862
0.997374619023387
0.9665253726313675
1.031096671221261
0.7822973012636215
1.5902483793276572
1.5680687529121318
1.6110912082570157
1.3016864041203164
0.9281253753320492
0.9246779387462503
0.9616757877461399
1.0254224510073942
0.9541028034911666
0.9792812501346304
0.8742698084788044
0.8378391092087378
1.2119756307473804
1.309373854586056
1.3001260129349181
1.25543203112977
0.6784541253075337
0.9124394225719152
1.1545711617602206
0.902521074258456
1.2354337853731499
1.2642198190467326
1.0311091232956342
1.1407941781615125
1.4229281496533017
1.021124448038073
0.8250094689111593
0.9761716710406859
0.6572795304821687
0.7199053512627447
0.704656577753936
1.037765819845794
1.3437062813866965
1.25543203112977
1.0826066163477452
1.2080992435478315
1.0749609127264916
1.351124661008616
1.2326671189480474
1.253453826425794
1.0203249107171166
1.0958321704195884
1.3507202959529685
1.1290084110683973
0.9608583001265596
0.9761716710406859
0.6572795304821687
0.7199053512627447
0.704656577753936
0.8383158405235114
1.3529242104548456
1.2547613088556453
1.4039696204556622
1.2766135661941178
1.319504353568156
1.3001260129349181
1.4791486826862557
1.550712267459431
1.3684370628580842
1.0053532097415032
0.8297613094641347
0.8823325639786647
0.7045851797304394
0.785257523445373
0.7868798232729791
1.0284264953637792
1.0308530832472595
0.8047232273269759
1.0451649338492377
1.151587819041824
0.9256835612254347
1.0492354170855298
1.3008981151763575
1.5482839933228407
1.5476764720917386
1.131730412602069
1.201569550610226
1.2639531042056464
1.0646896832767472
0.4372142288108659
0.6080045924322997
0.41138477882814817
0.29960971170720163
0.8533321852916645
0.7501328278298054
0.9215253394668876
0.9055001802630583
1.1065311807579334
1.350021948278452
1.4280747856098037
1.0428523183510625
0.5279826301006525
0.596770492621867
0.5604466168520522
0.5130836329669152
0.5575447276844988
0.5641515294204443
0.6346620272122792
1.1645883721793304
1.3878818475763923
1.025357938751474
0.5561923767582921
0.7041081244967177
0.6553547515631605
0.7995967200697731
0.8366904133083917
0.8742698084788044
1.0671073412829437
1.02376805712617
1.0182313137370658
1.2506246536558145
1.103397051179382
1.2134811864113402
1.2011243204513555
0.44308671552888773
0.32951775589344245
0.2521278694213471
0.12550642094195352
0.08350048298265327
0.09800436223747934
0.10113477179191135
0.11036582834968933
0.11459510096480229
0.11343226542811921
0.10700908587799772
0.11692083081495126
0.12242555528518838
0.09843608855206676
0.10855441212138423
0.10969310433950517
0.13005748014213073
0.38202591636952243
0.995708651793388
0.7320796689617721
0.8762650105351005
0.793560185258093
0.7194268284345607
1.0508294668270777
0.9133052491576769
0.7695845760571305
0.40504873585101514
0.39845700518565663
0.4718505309412118
0.3786741820433265
0.31637952677895614
0.273887707820682
0.2068263841978902
0.18987657513957498
0.15839345869497967
0.13516947577433105
0.11573597873655754
0.10374546275809833
0.10938308372693524
0.17472556012114157
0.1999607360138426
0.15916681863184856
0.21897965476373066
0.2197658703637091
0.22508876854550713
0.21898580846209295
0.18068244213313556
0.46762611515810615
0.5842342686980941
0.9542233285680118
0.660855047130287
0.17772369190642595
0.28305010822559795
0.2291163385884694
0.21810777175749307
0.11200013417841866
0.22576644705353033
0.3595808987235635
0.5677118412984576
0.8053949639535719
0.8453902153428462
0.762591857177167
0.4027174752151519
0.3122704798896814
0.22640142699130114
0.340490279701797
0.5842342686980941
0.8482644371525947
0.6519005065951663
0.4949318132128624
0.41959659759625045
0.3190282408004973
0.283047132383638
0.246813299590228
0.34347614641095925
0.33153206289135134
0.47221206740861216
0.6348458865159664
0.7305799439866135
0.6781911177900376
0.5253024969725785
0.43488310549797454
0.4362992092521049
0.5092443153431501
0.6088648488848987
0.4784806665826667
0.5046803377365777
0.6383775890674498
0.8029969038848574
0.6904655608099879
0.6335799269188942
0.6197542433359914
0.5700551116885595
0.6075128927085802
0.6726715646955446
0.7402421743707999
0.551287208884178
0.5701596418866514
0.5233676406280423
0.9010746517326208
1.1053859389624316
0.9281253753320494
0.8786779424192286
0.7247554270246365
0.7501919020573432
0.8734448456561862
1.1459016715654666
0.8131429764853448
0.6511745300234313
0.48135270562270566
0.5628663926679842
0.8365912408188324
0.9892988969939012
0.8598490595220315
0.6467588377498468
0.6787052588050745
0.8088840877137888
0.9707136714073755
0.9686330257131183
0.8880261442772805
0.7110142898709023
0.5157779347229461
0.6217680862048677
0.8389271020591125
0.6823697076210541
0.7917860428723787
0.8283603656854222
0.7292868333947806
0.8412677762050832
0.9459542573367076
0.7535858153017534
0.7387489325669445
0.7736297745563278
0.7664568864316434
0.6158289305164345
0.624201074716255
0.693575997382725
0.9235703003174652
0.814487103534769
0.6839736961531205
0.6790563368652374
0.8099281575524777
0.8887656279566776
0.7298156729928521
0.6054859555863601
0.47219954191372676
0.5847599597831757
1.0091060253770354
0.8691790633602072
1.0634389808031353
0.9140184011843805
0.9856070188726617
1.0137269919719003
0.809213246629766
0.7453398688607145
0.8000399270471579
0.6521053125583636
0.9478182534897399
1.1660642873668454
1.9069251784911856
1.4381084077649593
1.0556040878776765
0.8739331243264347
1.040215473038058
1.0532194375922532
0.9411731941597221
0.7589386048387302
0.6246709573231722
0.6836463889735728
0.6693009987277349
0.5936854202698115
0.492136642646678
0.46582246615569517
0.4799644885359074
0.5956210137734891
0.6703395414558508
0.5265377798272721
0.5433532981485487
0.5483840489649305
0.390338693735721
0.7573881978177327
0.7415656728642009
0.7994470776992109
0.5202036727390055
0.46149760735284723
0.5063224042070925
0.47590580313684744
0.3413958244677393
0.37299384033431676
0.3873234722932196
0.393443956863008
0.3651225119313111
0.4218220528336459
0.4363871432282102
0.5143110131185892
0.6418333801123087
0.5954630559185274
0.6942611475729689
0.8172776261922429
1.0541428667371089
1.0359065202142252
0.8092474030356444
0.7282011504422992
0.780725191328984
1.0930221827878275
1.1452253676322646
1.1151999770684764
1.056013522757305
0.915072038412145
0.8203292150036751
1.028354309207571
1.1264087588630844
0.5304780114836909
0.9165892463009074
0.8273526653587273
1.6757222900795348
1.3508478020498682
0.9124394225719168
1.3506347794507876
1.6376976403632375
0.9683537920056854
0.9845074053104569
0.6797773502145367
0.5217373489188594
0.7687136303347493
1.0166468742967245
1.114483226213935
1.2323042483380857
0.9281253753320494
0.6883126103581444
0.6196216044401959
0.7029477080726085
0.48157618682699954
0.6349286062487272
0.6881359633820947
1.0400996206590245
0.7116067520425479
1.058331171216557
1.1249220376817441
1.325855017307206
0.9235599721206239
0.5727334897198446
0.7068681779527566
0.6963548788062007
1.0221470626572569
0.7733298287511087
0.8581722669121178
0.8754544453178549
0.9636519723575969
0.9189821482007464
0.7901900493503919
0.9124394225719171
1.1181150433506846
1.098365161232414
0.9990404432569715
0.8200089313950807
0.7729424050211633
0.848225987889545
0.9206795732777362
1.020961281985315
1.10997427985794
1.1184879304294626
1.4824986333222032
1.2544351552458484
1.1227864087307955
0.7628919950210514
0.8898603457472605
1.1264412440475293
1.114986842697281
1.0416510887453216
1.098519048226893
0.6156145542470242
0.9709330237105452
0.73155769293263
0.6294445598300225
0.7355836455364746
0.8823325639786651
1.2788444757955504
1.3608888110749204
1.2326671189480474
1.113830311531111
1.1334154257340996
1.1148026293244753
0.9748209264155425
1.1130140136084472
1.0823238138453737
1.0271029799221654
1.1509021630313825
1.377945636523875
0.8051036583329734
0.7848295487659145
1.4158550675760122
1.1212213223553147
1.1563093969074887
1.156314268926172
1.067443401242593
1.1654804600958248
1.301972757384795
1.3731813197996823
1.3053047313717323
1.2467712522599175
0.901074651732619
1.144838451824785
1.126784433018675
0.900106060746728
0.8831892749417081
0.8581722669121178
0.8864778633158872
0.8348322875057849
1.0125397677116328
1.2495123825100378
1.0589184875917244
0.6515642269400179
0.4245936816044894
0.2988369526655909
0.14971423087832736
0.08898341745855817
0.08258335834633129
0.06888293264267412
0.10325180773975313
0.12361802998429681
0.12171441953470537
0.11210548269158364
0.10575857084443542
0.10404132775415456
0.09792197396818755
0.06060066038506009
0.08721864993342697
0.21045299785433083
0.7752930208523197
0.4621132741594115
0.6007051834846829
0.5482987862204607
0.6712873182990396
0.7007551828612983
0.8559963629312406
1.0400996206590245
0.7687136303347493
1.2637465304607294
0.922282699488783
0.8856723512484503
0.5588561289741902
0.36722663192875393
0.2616910259823797
0.19937201995706613
0.14399771468993433
0.05666090650585901
0.06462762564477983
0.0915103103266994
0.07745832992073597
0.06093424645920711
0.06460349999796533
0.11591408483109458
0.13930530148830703
0.16128840428850108
0.17919210883245895
0.20975341192292346
0.22619697392511534
0.34975705251070544
0.5071222279464667
0.9042498811387549
0.9148366372784242
0.7709382018038272
0.5864534290069163
0.5430859670936569
0.5510293082766511
0.3214373737842063
0.2765188673872947
0.22234273566582277
0.14641888039871734
0.16963147349362642
0.17142232372224156
0.1613367501333904
0.1413100611134886
0.15702972952467795
0.1621140225118081
0.13699586228694427
0.1355641652572982
0.14230115679534605
0.14450401693927825
0.15998035067938154
0.22615256854305157
0.31253126360060524
0.2806428285734975
0.35926486651616013
0.32759766588735345
0.31514603883401565
0.47244929478582337
0.6212973538326136
0.7005767857829602
1.1494082905099172
0.8159274929855199
1.1258247054812311
1.2300882788567227
1.609848682633291
1.063554003740991
0.5674043765214658
0.29072349718694923
0.3865238653061984
0.366802874038015
0.4412917243214517
0.36190795936371745
0.3533013864295459
0.342510162260104
0.4303329988460591
0.3979581794664778
0.4458968084191732
0.3699971631073148
0.41837689610402046
0.4684127171963913
0.5926392899859537
0.5094320625780322
0.6048384298134083
0.5702985576255737
0.6061642017481573
0.6325315527090114
0.7151071401770894
0.8400642551553992
0.5696012098122228
0.8185521408335076
0.7403036517635896
0.7249437013824293
0.8005342102038179
1.0296013167383267
1.0574127672925921
0.8869957212586175
0.8237371169739497
0.62207120009877
0.5030890781155788
0.9872932977134672
1.143033528458815
1.2065382234571718
1.290994448735806
0.9125542031522043
1.1656849436305923
1.192245108590834
1.3432670725320153
1.3036542456100098
1.0757896025224405
1.0897331653001678
0.9055001802630583
1.091950139361938
1.3245588554476766
1.1545942473175628
1.014168254732254
0.5394301730792799
0.571039590330419
0.6688706596650681
0.7292441684833931
0.7473011906321027
0.7830128372233064
0.5892736005133872
0.7725120004926863
0.9985837906374363
1.102413773258175
1.0724030107936942
1.4299762061176424
1.4791677348078403
1.2213247638530889
1.077125576568048
1.1065143994926643
1.3077755561973747
1.4019397092455503
1.0231657297411778
1.2340827343626797
1.646025911902656
1.4638186792123202
1.386959659504545
1.224789123679986
1.1210565568465953
1.255883449961284
0.8577784059630221
0.6622661785325218
0.9217637394271734
1.1226456751449687
1.010529203353315
0.9662620327824334
0.6222125186357441
0.6356481050562204
0.645972197979966
0.543000821620564
0.4942558328774149
0.48286853313960426
0.4855559946572892
0.49750104375945353
0.6775797737383928
0.6650681869618729
0.7701423066085836
0.6365727529590228
0.58866132944685
0.6821447333525573
0.6931591478549384
0.8327321139369666
0.8152019884541544
0.4862336258181275
0.5446526631196436
0.5215115965855823
0.5235857466737827
0.5931438230619331
0.8234633095669942
0.8429746441292744
1.051142369551716
0.9382302199299909
1.1130987869574933
1.168802886504714
1.2457120903151224
0.8022388210048312
0.6601115723010015
0.6228185597155181
0.7883760222891194
0.6797773502145367
0.5217373489188594
0.9948487394791601
1.1039901898868028
1.1053859389624305
1.276617468318595
1.2521985279275614
1.0275753446182896
0.8348322875057849
1.0125397677116328
1.3769796624732331
1.4284169463899297
1.607673352960484
1.3807046703606594
1.3415312339111485
1.4107741433745755
1.4423683969011452
1.5058506238430627
0.8676298885640927
1.2534538264257924
0.9426504735894367
0.9740536989899262
0.7789290857610265
1.119419237696988
1.4950933870786263
1.5081888372212158
1.31120145006411
0.9616757877461433
0.9595930899102113
1.1188385242732226
1.113370847780175
1.325642904543246
1.1048911514720503
0.6520530760946813
0.6937656693578215
0.7052232941357645
0.9370050253317883
0.9977588472153798
0.9977588472153798
1.2289325942309386
1.0966581748817208
1.0910894511799634
0.97530624033238
0.7952579321678144
0.8831765371815966
0.8022840408757784
0.7564604000247162
0.847019710114321
0.711693455291329
0.703365084818948
0.7295314423548869
0.7536506601605589
0.6544467556417595
0.6473248446926518
0.837508126775938
0.989971757096379
1.0430234076725309
1.3163627145353576
0.7554297405972334
1.0415114935467868
1.081208184378247
1.1452253676322646
1.0124655847406023
1.1531121209220967
1.1574421423489714
1.3053047313717323
1.5710431169517798
1.3644448007077792
1.0106473962953626
1.1271458059838093
1.0135590802181689
1.0761651048529661
1.4080872889134055
1.347457518925909
1.4449655884423003
1.434685381846626
1.1995196188242017
1.3022393739642593
1.3654614076914644
1.5601019330760844
1.6729122216857581
1.221632543875688
0.9994798934437575
1.1414665576738956
1.1170097414347748
1.0079048985909937
1.4447698364595012
1.3739700410512279
1.347046918564939
1.2349087097560838
1.2139356903224463
1.331124197716593
1.235026036319101
1.3426002026577102
1.1549347198053055
0.7822973012636215
1.2606206194172294
1.0602899353571693
0.8180226059739512
0.7573146173900857
0.6572795304821695
0.9630950258190116
0.5526951059384002
0.36779882227532584
0.17360480795015804
0.1023131581137502
0.09603891427797293
0.1416352776859341
0.17415065368944063
0.18562835605211433
0.19636632162268947
0.22012785184285608
0.23073275311228272
0.2385154074829396
0.1936146497220892
0.147407772339307
0.22662334498556552
0.6583583246565071
0.9271171105757906
0.8576175902545352
0.618666616966949
0.6525798080862358
0.9746696619734434
0.7728528607732666
0.39587674425057406
0.42057261857436584
0.28283279957119983
0.25024647336244465
0.19937201995706613
0.16753847642144992
0.11163578815678571
0.11019839217678641
0.11573597873655754
0.07219451695419091
0.09991938459240417
0.09628424734278193
0.10257671728380344
0.09457103248721022
0.10026194347961198
0.10797934028700262
0.10413049962127043
0.16598511951254694
0.15916681863184856
0.12523079250914837
0.19146922087611748
0.23092687964076877
0.3090911809317143
0.3356349732359969
0.4697044549039304
1.1693728518352062
0.9859052564235757
0.40454479530499715
0.3024010034751779
0.2739744367602438
0.17129623283172415
0.20013400309935483
0.11232106298729867
0.07424757085331836
0.07843147311225465
0.07799296450499221
0.1333351565175253
0.07513823139120289
0.0680511295666923
0.0720598572861956
0.10127555067718208
0.11649157931858832
0.17127175866716646
0.19863146261656678
0.2992943120734205
0.3042095325782147
0.3344670651009983
0.3802618819124688
0.3125642390574456
0.48450690488368253
0.5491016769422848
0.9760079039396647
1.3575604660570155
1.1733137022407274
0.7872154455779897
0.6577386573193262
0.7341186008612761
0.9763210543120054
0.8824930984612909
0.7729661481313721
0.4865931834070658
0.3844010985401725
0.4375239329001935
0.31656396306801615
0.33840098702156773
0.4748778633437708
0.5344364304549716
0.5186730528810648
0.2971364324057839
0.29853799710373957
0.2635690425479037
0.32980431012664974
0.3646312958024378
0.3946615721431441
0.3995531334788383
0.4734278661040549
0.6808129980840567
0.8713250042369488
1.2223740037619208
1.222086599006251
0.9166051777370608
0.8273402684048836
0.559821508181269
0.6366291557016519
0.9785232243682632
0.9354982870451335
0.9289719475550274
0.5279826301006525
0.7813131471847029
1.1509766607290812
1.1622046790298117
1.0435764448844413
0.7113888123308697
0.7369136506621345
0.9073771270507298
1.0660035817780518
0.9410250816378607
0.7536254364965854
0.7388652225845529
0.7565155413575418
0.7725120004926863
0.9998144304708542
1.0331134750494462
0.8872548439244514
0.9002683028552927
0.7966437178426683
1.0420867736673969
1.346656704875959
1.5047325856032874
1.4126570303854116
0.8282332807235693
0.8607532902761619
0.9492394921392591
0.7889026128473705
0.6807854391765374
0.6836078261590581
0.3786432692517603
0.5496974499409577
0.6173773923315751
0.46624349937780957
0.6048384298134083
0.5702985576255737
1.1401476510575037
1.4479967038933679
1.5459600999357
1.8482685993418173
1.6537208227149827
1.9372021347297588
1.8817481244958185
1.758409934929121
2.188748041098505
1.4976937837385311
1.1944414807153845
0.7725896100869789
0.7890932844610494
0.8701072638161954
0.6646556012500703
0.39218711392342076
0.37063747221378746
0.3811024247506043
0.43000219861067585
0.3711532501954659
0.35562788078459756
0.3099307734615631
0.34584400848311364
0.3475432048541311
0.5545375139675406
0.5133329208149444
0.418173595025815
0.35929466261145226
0.3177205784131932
0.24805774411816792
0.3606630743203381
0.44455510001362447
0.5561089182399768
0.6642373970116643
0.5910076733557545
0.5751305099653314
0.6320250348610795
0.6646940000425029
0.6333777592537038
0.6812293287242854
0.6914521880775245
0.6342323080243194
0.8148839171872152
0.8983592976761008
0.7730266767117355
0.6820479779479965
0.5130049953879154
0.5862626329995329
0.6213889250396112
0.7331619166063705
0.6272784616021888
0.5928054357359589
0.6197901753366782
0.8108490213653277
0.9104272295378846
1.0319055094787775
1.0199867692458358
0.7877717504206277
0.7844645405527362
1.115879312063713
1.1791582002020733
1.3213306107308027
0.8898603457472604
0.9082207257790731
0.6720473746030903
0.6157111913761122
1.0244954223730096
1.0503840402607065
1.0070610348652826
0.9071004886962211
1.048197149270663
1.1610586750891243
1.6104693104412062
1.2355144910578657
1.6568337391590289
1.2019082107866133
0.9639753168890525
1.0845285199572179
0.9379885295114225
1.138931226458613
0.7919354192764169
0.6895982101689526
0.618666616966949
0.8415638200661976
1.483520485181693
1.5103864748604743
1.1399767949049089
1.0461745294926794
0.9639753168890525
0.6590818507162869
0.7603151445736006
0.785461966225889
0.9394843197875087
0.8885647070044838
1.0312831633584099
1.4984979328355217
1.769315158652248
2.2000638269199135
1.6080736466269623
1.5258715641252774
1.2113552833591172
0.837508126775938
0.6923572540785544
0.6411197508207437
0.6372653643524816
0.629496419796649
0.44640272437922307
0.4562472953218595
0.8000227057867056
0.8152309826116465
0.9665253726313675
0.9616757877461433
0.9595930899102113
1.17359376575963
1.113370847780175
1.0489324584166277
0.9546143053095371
0.9416580678355759
1.03044428019812
1.169340833124333
1.095403801548364
1.1051506971168843
1.274307935633669
1.1698351154784876
0.7516551285357663
0.9245329406026497
0.987362776386364
1.1071424920232558
0.9298307962472699
1.0381562663990316
1.0158469666509307
1.568267367334118
1.3703492234146686
1.0856837470404495
1.2776144787265555
1.253453826425794
1.3936409981536697
0.895349853048284
0.7116258218910217
0.7464668105521164
1.0425720702853738
1.29935540976368
1.5299398638646096
1.111898077918649
0.6463547509467404
0.5436255806064451
0.29432578920556246
0.17214822588832207
0.14971423087832736
0.09265334291321024
0.04792131903231808
0.04778233379620743
0.0632337530388185
0.07152029129618039
0.07255235084180896
0.06917442798903002
0.08214020701827719
0.11570944258458205
0.09843608855206676
0.10995797871783156
0.12397398732329187
0.2905184656927542
0.8638377046971596
0.6581920259423906
0.4274812650862581
0.5078130828690175
0.521635962164004
0.4824116946544912
0.587914914116304
0.3413958244677393
0.622586938037024
0.4584827570534477
0.3736743028748609
0.2887920048513848
0.23847146391639445
0.21099327239268692
0.1252937052985911
0.142777374929837
0.1306770183101369
0.15081114268188703
0.1418119162615263
0.07219451695419091
0.09991938459240417
0.11333264331181565
0.10257671728380344
0.09457103248721022
0.09523411275284827
0.10033197122346031
0.12142451082740652
0.13231388967479735
0.1159105994257461
0.12523079250914837
0.22853988626811933
0.2637716125567412
0.30565822118333347
0.4480933717534676
0.6650422717463643
0.9333384434708003
0.8923318264164938
0.4948911075830109
0.3156820883930995
0.15488395349800943
0.16694835388524099
0.24373456048977127
0.21891889094769063
0.17048914174044189
0.1565247486937929
0.12153947111056301
0.13074786306277678
0.13935221573408876
0.13953132783238478
0.14858572419348487
0.14292968508370377
0.16002505040883946
0.20432352178897895
0.23314599166016625
0.33922516985462237
0.374433369606166
0.31858823124973334
0.3208984523056085
0.3272451145191962
0.31405859888894766
0.4199292230054519
0.37610070581864713
0.5654041051572877
0.637898519028814
0.4607287460988928
0.5216921883465383
0.7628463955487909
0.7898616199094037
0.8321875001401753
0.7453398688607145
0.6488699190133798
0.5340755187859362
0.3861765102071439
0.2635690425479037
0.47158067578059704
0.4606969479043562
0.46659065099097485
0.49098206408641987
0.45089552350456963
0.4264996770970594
0.5566588771001761
0.7857933667061203
0.8526927968275563
0.7834025186380887
0.8054220376090162
0.8246026423243549
0.8671361546362022
0.7572211544582944
1.0845989687804052
0.6015661104845207
0.5782245388847039
0.5276245320014585
0.4766468823760875
0.49129881959117383
0.4957891763503906
0.5138250655154667
0.6234756950554428
0.5701596418866514
0.5233676406280423
0.8251069298684197
0.955272360242469
0.9279659067901321
0.7410446911333792
0.6325315527090114
0.5879228209546973
0.6509677125175042
0.41460251697296363
0.3153298896903386
0.5225776523165259
0.42189283880044204
0.36059469135688527
1.087896962726657
1.3361488833065456
1.3649147527679963
1.432390530311459
1.4384021441656107
1.439604108276481
0.943092846918279
0.84446961471695
0.9197067739683848
1.2076323831890223
1.2732756287005733
1.3515098313896925
1.1382625688163037
0.9470243668314673
1.1797593583685488
0.8596364039480414
0.5030890781155788
0.80998297884205
0.8002864559148561
0.9303620549554137
0.9463400352135538
0.6489694594946923
0.48135270562270566
0.624201074716255
0.693575997382725
1.0035217687723947
0.9707755076700788
0.9037490860435835
0.7335097540117071
1.2798255816093607
0.5858898908057771
0.7866154260471995
0.8020323213189269
1.172447219093027
0.8340442993569605
0.862382337884175
0.7294738957684743
0.6485913302948442
0.8550785271968168
0.8386423297531914
0.7454340527423603
0.5966282149117724
0.5926185556168987
0.5790314391081667
0.5974101988098477
0.6781371836924754
0.7454340527423603
0.5894924815624492
0.6018804288699526
0.3915514270232381
0.3984123322124311
0.6661118990368968
0.6624709828933826
0.5983197854177493
0.5191118325505291
0.46149760735284723
0.5588180784662362
0.6097459993585392
0.9861317034293932
0.8989909720624192
0.714286518898458
0.6519462187588647
0.6125798787257183
0.6972402646602193
0.8006472341154924
0.7111742613335653
0.4084438900972311
0.5824751143251619
0.39341204901301247
0.5848343962708491
0.7167332096901197
0.8995866738030468
0.8637734258600598
0.754896905755665
0.9884550709639534
1.0629173685572073
1.1636540818645018
1.1260526260434356
0.9300647074653844
0.8825232399673515
1.1203540608758369
1.7204783012944616
1.3371125345815051
1.2886235352103703
1.3200687165804903
1.1346455327091802
1.0530749726978064
0.8309906389152092
0.8870412641252976
0.7138042850789051
0.5924110772176859
0.6434303177897233
0.7892837497014437
1.0658049699452707
0.9546143053095371
1.3107870914208055
1.4204635928473444
1.2517871734207584
1.53113948925925
1.7569452290625542
1.5601019330760844
1.845486596654338
1.4701225715615047
1.3227342527142867
0.9983949734972034
1.0715306674091094
0.8321238081690147
0.6632044456538512
0.7542401688539697
0.5824751143251619
0.675011600451075
0.5425494602364879
0.4583255135496304
0.801892792822607
0.906003772423807
0.8086820535494907
0.8227228756504468
0.9783175228708954
1.1349008764297903
1.1654804600958248
1.301972757384795
0.5858898908057771
0.9890669639943475
1.137653495108099
0.9516779302250836
1.3764203072433576
1.217526130758754
1.1015413484084438
1.1315390260735023
1.3865287045154602
1.4839821597375695
1.3551038982734462
1.55590954153431
1.3684370628580842
0.7591168440059383
0.759494296083261
0.7707850102976327
0.7670752461319631
0.7171639580332484
0.42408228541068954
0.8049942648504845
1.316712005187753
1.0735319172538613
1.0774767117984687
1.4520212467012419
1.1053859389624316
1.1239321985570403
0.8786779424192286
0.7247554270246365
0.887857288355667
1.2379136256669838
1.086291949594571
1.300054120728924
1.292136042368015
1.0522942438042113
1.1837566705588851
1.1466869027892606
1.4254209819548864
1.2957065653249662
0.8104364194225777
0.6317265460928341
0.5806876891737711
0.5879228209546973
0.5040425086626665
0.492044018292608
0.31092094941979037
0.12382724227755855
0.1023131581137502
0.07502082398417304
0.09526716574191836
0.0949618653470451
0.16266198282255195
0.19636632162268947
0.20077800232997586
0.21814657269333568
0.22404138518740319
0.20748268567006317
0.148757129315318
0.1842547836162918
0.2990606189568361
0.39033106533361045
0.45706310458052696
0.49961899233111545
0.6168435385855695
0.4951752652755686
0.44912931132933825
0.34261115071702297
0.29067656284106735
0.2460796732661171
0.22862887490828634
0.23589438980553856
0.21300728897698018
0.19321366816607916
0.17918401553059798
0.1522933348515706
0.21262548098436146
0.16139134369844144
0.166054005245128
0.13417147658429235
0.1258994136225727
0.08368542271392942
0.08925847096911113
0.08822675241273492
0.08711316514097839
0.10906146830279732
0.1351392716690459
0.15773151291368653
0.19622063401411927
0.24138583578096032
0.3037428872061221
0.3408369228872415
0.4528214382020759
0.8733863927629445
1.3492789129771092
0.9148366372784242
0.32401542899025726
0.23170720445525933
0.2001591781560749
0.19220667737975827
0.19380430667042706
0.18906539754570326
0.14427241192561652
0.12008202568240536
0.11934754436349727
0.1221275991577198
0.1350757377139801
0.1333336492231893
0.10494656903501924
0.12106885626528707
0.12967830537202119
0.1505769283633296
0.20177304874673224
0.18156066392079567
0.20387449186059697
0.20221952516418382
0.33503529525691905
0.4040827338183923
0.4289714223637572
0.383902153929394
0.3621150148096663
0.38873470731231036
0.4436923682968665
0.4284265226582024
0.48379876900267765
0.6226381086746743
0.8088840877137888
0.7343140049573367
0.9012229446757568
0.6193869722246844
0.566812746196124
0.31719217677815686
0.39225993952044197
0.42019847283485556
0.4412917243214517
0.3548962076552292
0.4754967688479928
0.49130212671626833
0.3621150148096663
0.3892190717733483
0.4826176144880954
0.5852258930664082
0.5470992494738687
0.6294432892697254
0.6709554181272682
0.41138477882814817
0.29960971170720163
0.6300415702484718
0.5850606500441572
0.5355002105400197
0.5523701822596575
0.9999110249687642
1.1213027824845698
0.9661367397113968
0.8112187031796498
0.4431985306206975
1.0119724482726191
1.260107437281983
0.9818344551787801
1.0086425364129883
0.6676789407861372
0.800660350545935
0.6928130981414238
0.5827714747589202
0.7346918588802296
0.6604067471271711
0.6672904310264948
0.7035219878525933
1.0636096353511246
1.1436262387817286
1.1525047797589925
1.0581414525628887
1.0880295374763063
0.9448651113027032
0.9988905982869846
1.1118686900786154
1.1004943976941697
0.7106394684954758
0.6187453289081689
0.5385004264991702
0.5917906425034781
0.7237992470089905
0.8728683613762831
0.6891369707744868
0.809552964839541
0.7807041813587833
0.8517524432537208
0.8077418025881514
0.8183943210540123
0.7180175073766961
0.6573791667581635
0.4372142288108659
0.6406852522739775
0.6986567859957529
0.8412252683620679
0.8175853324294441
0.7226397060593661
0.712614602319166
1.1457521514654183
1.5937131998639587
1.5324399159213
1.8424571378726349
1.2909944487358063
1.3838128208649318
1.3889578404714265
1.0189119070856467
1.0034168273700372
1.147906184526645
0.8394781565028097
1.026986215495673
0.8387871594186711
0.734531163152218
0.5296659969935357
0.5327896625982063
0.44646047637506237
0.34082300367852675
0.3759260492260404
0.3024156185633111
0.3141360477210206
0.3458982348337976
0.3951798934003486
0.44695059638923706
0.47858928428064573
0.4398409802087632
0.4754965815895863
0.5345926309744423
0.5797219288100534
0.5929507559827049
0.5191118325505291
0.4727198869004386
0.5588180784662362
0.513763680386686
0.49239266313368985
0.5953322543453868
0.5586432069298042
0.5673937912471726
0.7615400122028786
1.1040943626632633
1.3180092827130112
1.6113408908546836
1.7593288763724917
1.3357288603404294
1.199917441483834
0.811195554194352
1.0314388656647007
1.0741452753153193
0.9627668226646434
0.8054602473194189
1.3546308117827273
1.6678365341044246
1.9514801557359005
1.8830326379047542
1.4704292441876154
1.2261467980927192
1.1873482613249806
0.9977715754679746
0.6629625903987642
1.199019584426774
1.302239373964259
1.197462241930211
1.120354060875838
1.0123040408963035
1.0488472094106873
1.013872277492695
0.5304780114836909
0.6969604906077416
0.7274505836141179
0.8914719577617073
0.9118074067406796
0.43504529656911384
0.3829445917231473
0.5877894411337734
0.6373859852440603
0.7516789998268175
0.8823325639786651
1.1382625688163066
1.0103627378672677
1.1090239435608251
1.129251627749839
1.2258830717515046
0.5419454233720737
0.5203427734127227
0.5330951156555962
0.5619106675029858
0.5453441611488822
0.9758829824093918
1.1198516358642738
1.540080093089915
1.5118937903167473
1.3010196232408953
1.129416802528531
1.1355286202776618
1.3104356053091106
0.9249061064148428
0.8668251506175707
0.8968962404258214
0.9176263699542632
0.9333384434708003
0.7630592310117408
0.5451732116183313
0.5863165401982019
1.1014859361088165
1.1700435926529391
1.0570337582302547
1.087831700375025
0.8836941508703914
0.9179756352076989
0.7544991086731411
0.9176263699542632
1.1340837499527203
1.03708583004113
1.1554072140435936
1.287044522216658
1.3844668707296626
1.1504331757295176
1.4991640030457343
1.1968785142447869
1.2458888447703023
1.6567119215602157
1.599049803426647
1.2024072240843033
1.4461418255916094
1.095403801548364
1.3564976775793087
1.2236952317185341
1.6809088675071473
1.4657760938689153
1.0581414525628887
1.1477531454211796
0.976179036263631
1.0098455374377333
0.9959019771770931
1.0954680909327956
0.9815100486235968
0.6637696849013658
0.46939142881128726
0.38702936545878497
0.17114617591561712
0.08350048298265327
0.11533079090304546
0.13827459124414412
0.14542783991541533
0.15552376596755366
0.19388961503738616
0.15521573635227778
0.17672840736898165
0.19791983745748715
0.18854903937396109
0.16551940824389233
0.1431186091039067
0.4869624084060717
0.6486185788520888
0.6100545056131385
0.3281934925265308
0.42617824447225133
0.3399505287113733
0.3481209209741196
0.4467053036234081
0.576892498037048
0.5133329208149444
0.37746838296458957
0.4036075681770717
0.3770028016983963
0.3098062897234884
0.22767338666233466
0.20502650950644632
0.13347627303356968
0.11205719657421259
0.11092127485590242
0.10407621864985132
0.0565268878063201
0.13964238282241573
0.07745832992073597
0.06093424645920711
0.06460349999796533
0.11591408483109458
0.15366399236043968
0.18563293234539122
0.23771640077584455
0.26865807643118733
0.27246600835086754
0.26031733961809156
0.4518202361930634
0.9470796764434375
1.0235787012590272
0.6722426442374082
0.6722976948238366
0.4775340037102578
0.2679477294136991
0.2862005167609287
0.22104439064464534
0.18906539754570326
0.1637602432833233
0.1490831782711834
0.11232106298729867
0.07424757085331836
0.07843147311225465
0.07799296450499221
0.11200013417841866
0.14013763024687956
0.09537943466486382
0.1809777612974372
0.20302279205497137
0.21695205191701147
0.29031203439648595
0.42508356369080746
0.496275679631659
0.4969948266515506
0.5904228782756581
0.5103579567035929
0.6650561938249204
0.6159623107861062
0.6294315816863415
0.6202100626143014
0.9249805690442419
1.5084727743307802
1.6349581112385396
1.1462256486218823
0.5748704842179765
0.3452062116309727
0.2966811182702913
0.28916946505591484
0.2880454029997375
0.29393698627316706
0.251968685603177
0.21557390368206705
0.2366800919013779
0.3030213784307343
0.4658922412925176
0.5722030286414632
0.6187009125085956
0.6250397990180397
0.9224006241891624
1.144533161884939
1.4928494574716369
1.1341676899741246
0.9146777014864016
0.7416008870247783
0.8462678145234489
0.6751053725424861
0.7386115587579806
0.6631029617986542
0.7129513255047385
0.628994067900429
0.9276292670059344
1.0985262016618258
1.143413288462019
0.9831560108046097
0.6795212387116462
0.5317085916322467
0.7072222185120848
1.144533161884939
1.2574562091236938
1.023840326418084
0.7290982530438678
0.48372835561516414
0.6432369553152917
0.5866387888551002
0.48946590970732723
0.3699971631073148
0.48007299909666373
0.5388164512319156
0.7070711691439923
1.049655347977915
1.341195251720566
1.258222933968349
1.2049694339385384
1.2671178189763672
1.3261903844039806
1.2233249372108412
0.9778718599626088
0.8486151282404317
0.5122503346849027
0.47986960493664
0.6113587661096294
0.6173773923315751
0.48714322730893195
0.7484244606161369
0.7102121602041085
1.1480085161254687
1.0940709656541638
1.0390108195262173
1.2544351552458493
1.2793726336860856
1.0253008742454925
0.8479807106081866
1.0166468742967245
1.2179658194579688
1.1347975756885533
0.9607582504126924
0.976818249360496
0.7614431533338716
0.5622173581474075
0.4643028841889234
0.32226226143317543
0.29232819522863174
0.3464374830624485
0.37990242170082983
0.37746838296458957
0.2684410169685343
0.23755935674959544
0.23193726114239255
0.32541401847593
0.455084448758544
0.33071044161936364
0.3840239963487746
0.5078130828690175
0.6264794795073969
0.5335886728616143
0.4231783772600721
0.351523551060015
0.2723598919234265
0.2563313997668434
0.4036740997751259
0.42648208709267466
0.5266852790552604
0.5588584831374811
0.5885453772252471
0.5332301552411581
0.33951570947252846
0.6726374853380004
0.8082793487190433
0.6085971816891473
0.5269159830477583
0.390338693735721
0.9498249322416448
0.906488414386245
0.9166984970282117
1.3198761313105232
1.2292577039973027
1.0249593991624228
1.396529581539322
1.4530850560107222
1.5251772099672345
1.609848682633291
1.5381888349343338
1.0466416937046776
0.5135379211479572
0.38312452910042444
0.5332958591014911
0.5810975380736423
0.820742992992612
0.9912694254238629
1.3542545000631778
0.9859694110786592
0.8551335795972307
0.7166341906372405
0.6222557719766024
0.34070796499644485
0.4056542383581591
0.4252700031971264
0.6113587661096294
0.9115895806150732
1.0072449922636153
0.7486567566925997
0.5518763016587062
0.5068127347038803
0.4903461301090428
0.5498753198583549
0.5134393387063849
0.4733772931864544
0.5603948770161868
0.6248802338041127
0.6943319543872015
0.6940232369140898
0.6812084897057143
0.7696408631980824
0.8918825850158454
1.384878205787085
1.2164164746285324
0.9848170744845709
0.5947251869583088
0.9009626529813768
0.9708065901819982
1.4392427030216175
1.3486198825664568
1.009845537437733
1.136446491155866
1.0724030107936942
1.485172858345179
1.2223812983790492
1.4696412135469004
1.4041248022399637
1.1654804600958297
0.7789290857610285
1.1317304126020673
1.2615199165488147
1.1828801420980144
0.8970503882199369
0.9403229307374709
1.3593057330890475
1.8414407482327544
1.7513271011879097
1.5970900725404436
1.6720354804732949
1.5491879350170104
1.63291645229915
1.9014318087549356
1.3391383097376104
0.8194736986630042
0.8987283975238106
0.7640984789143183
0.8434237714179482
0.8943740721805806
0.7209189863536875
0.7326217254140074
0.9521150289622026
0.8673675364362975
0.8789426278003462
0.5517507605404653
0.5979274068720872
0.47441918258869376
0.6164331335785382
0.9047198594475339
0.8079745419046027
0.7440488219653257
0.5059693867187014
0.6489790342453472
0.32113032021189514
0.1974824286194615
0.15441542593128765
0.12038648558793538
0.0744905955830544
0.1680016442320069
0.28261864725489094
0.33401845426616805
0.3681126161526779
0.47803599767648325
0.7038822787592025
1.0022586299133025
1.0041313619588033
0.6722426442374082
0.4102178236863652
0.3860653539050815
0.28346615904842104
0.5677118412984576
0.7311721964138475
0.5932503574719206
0.43479670011367355
0.3111863666038728
0.2036787878294519
0.15121025701355525
0.0960457167469314
0.07079742411235816
0.06082467390512721
0.09212455237972818
0.1325961908331419
0.1673833509811564
0.2298424485878623
0.23176361129037934
0.301438334800604
0.6036823326602362
1.848479388097958
0.7039152274367614
0.5752399279211587
0.5827714747589202
0.5829269848723415
0.7338950395004834
0.7392441042395912
0.7270959388513245
0.7491821809553776
0.8198176905470921
0.900106060746728
0.8831892749417081
1.0371849201259309
0.9222701463024973
0.9984088779817656
0.8972827396657951
0.7332355751067673
0.7052232941357645
0.9449111825230682
1.4880317669365055
1.446340900331054
1.1872957049239883
0.9065963785715953
1.188297642258735
0.9667806980420268
0.7740393962383117
0.5413056966596573
0.45762032787396817
0.33524913203808454
0.4373506794034727
0.46993703479491944
0.6003002251876638
0.538944344487336
0.4675316012061538
0.5174863707585432
0.5718614111131105
0.6469748314588456
0.7295314423548869
0.6006099877814876
0.5665941309727764
0.5242738318060766
0.7953377630335918
0.9440683888367684
0.9244257298293692
0.89361373581993
0.7681397733522084
0.8506930248279753
0.811195554194352
1.014191146849696
0.9586158157371001
0.871485681164683
0.47289160386114104
0.38746352921408933
0.4151641371621211
0.4588111588721842
0.6485016667074219
0.6501628406625511
0.5925848970584824
0.6122864819725907
0.7272888803430028
1.02694400874342
1.0854915899731026
0.8387871594186711
0.9768904340791201
0.6300415702484726
1.6682135044790762
0.972340030953935
0.7416056982154006
1.077125576568048
1.0140402531267876
0.6823697076210541
0.7891269653615155
0.7092035079736481
0.6287622092999697
0.6272784616021949
0.7067468505329383
0.6488699190133798
0.5033500156021342
0.33779332456715494
0.2765188673872947
0.2935836854498952
0.3385466130376132
0.3320774047776007
0.4371102617769507
0.3861765102071439
0.3564420267536116
0.3206789273175021
0.34404106580079924
0.3172699353666862
0.3520181499680081
0.39309282938592144
0.421998076747512
0.3206789273175021
0.39276233580318276
0.3125642390574456
0.35700701735061613
0.34331340927805104
0.3776842844987795
0.4560595968802297
0.39106183112713433
0.48261359092578177
0.5463528300780698
0.5605363376057141
0.7353766655953343
0.7439007048145594
1.015946651406812
0.96911207849744
0.9455667025866444
0.6137893943339041
0.8361572120057831
0.7582282642177259
1.0305133298737854
0.8878572883556661
1.0638149728695607
1.0850599303533366
1.0921414382827106
1.2043438751425053
1.2173905625524988
1.3390096359216963
1.2064665399958614
1.0673151344106637
0.8273402684048836
1.512515219493046
1.246314704746562
1.0595319286272327
1.1523969334683732
0.9316028524935333
1.0232781556430415
1.2737626283495285
1.2768847961381233
1.0926338124366435
1.0982484777649337
0.989971757096379
0.9746872325687365
0.9164536052644173
1.2198156550076347
1.358801275395597
1.5296056582913158
1.3310609919063443
1.3893713305347792
1.3893713305347792
1.32006871658049
1.5241603667872694
1.6935957558425423
1.230589257986689
1.4258503212890692
1.169776599739109
0.7844645405527362
1.1442147785097387
1.4341191524083157
1.3488199966379226
0.8172514216538868
0.9707136714073755
0.9686330257131183
1.074974540419975
1.0026050998819391
1.1410393067345663
1.2236639691085656
1.6511206540181338
1.1828801420980137
0.955352685455925
1.7226672406420378
0.972340030953935
0.8100509907633034
0.9755039372445463
1.0396684411151835
1.1264571894358077
1.3032848883432306
0.9856070188726617
1.050304304660471
1.1991828058924805
1.1864042169132045
1.0410216796403642
1.478875201373237
0.671328633009462
1.320971011444295
1.4144817888727883
1.4495313407967758
1.4981453302731675
1.576804389384207
1.2743079356336662
1.0781494501000015
1.3266392488603458
1.4435108730400006
1.2562103314137936
1.0249593991624228
1.396529581539322
1.1276600154949277
1.3893713305347792
1.2565827003871906
1.2492025344194961
1.4642691856173056
1.2129112929068282
0.8675045810022645
1.3914418513962166
1.1654804600958297
0.8378391092087378
1.02376805712617
1.0182313137370658
1.3842367559094408
1.290922356713134
1.1596722979464005
1.3769796624732331
1.696699112626597
1.1968785142447869
1.1770526901733138
0.980375902237023
1.2832541799484087
1.808113449349222
1.986271119146692
1.7528044734538504
1.1601459613294887
1.1046787525509592
0.9479443475910213
0.9504848441377022
0.8360418768772253
0.7031490344360972
0.46256319402880863
0.6218896297138158
0.786554281058669
0.6436334312652895
0.7002083421334707
0.4866501165086637
0.5498170558578734
0.7377394686404983
0.6551944919169967
0.5626812297040088
0.3811803972616501
0.4376443030750999
0.643683506635171
0.9115895806150732
1.0116639879218565
0.6655725785442616
0.64732361510959
0.5088587119972228
0.5073710549574203
0.5397304056031327
0.407473537076834
0.6599000888072425
0.6538865258135064
0.9941189487509345
0.9515707717819315
1.0814761408717504
0.9313625492231985
0.8918825850158454
0.8676298885640927
0.7218076037207348
0.7065990083771952
0.32401542899025726
0.23170720445525933
0.16174878025751926
0.08527704882144256
0.09127218866669119
0.08466024824122322
0.08212278875006608
0.07182158711375944
0.08517866241843648
0.1007686221680743
0.10167720176774636
0.09313156882640912
0.07171116137830098
0.05078473954223769
0.07474713368850834
0.18055780265329144
0.5380924870534575
0.6042936616326019
0.8606061071058319
0.8208075928065898
1.150285620060477
1.064940299873685
1.0544909394622781
0.7294158221375852
0.8008245253141966
0.5539173547944718
0.5296659969935357
0.279717849449214
0.27873277167781324
0.2853123150719081
0.2831195687110414
0.20990918725804472
0.16608184911178264
0.1643627340254581
0.19011574241528745
0.2480786611184897
0.22520406632500947
0.26642725741976236
0.21343218194912797
0.2684410169685343
0.2924013320168894
0.27450477554812674
0.32541401847593
0.44455510001362447
0.8679225119254458
0.8482644371525947
0.6515663854019892
0.3413366814418985
0.3209938626708278
0.366802874038015
0.3488092829012621
0.420949011042342
0.7653339697406213
0.6863161417774839
0.5215369883314754
0.3467190439562935
0.17166212692577676
0.16804609764609502
0.2627844129553261
0.42560337060993975
0.7616007554533665
0.522960393308941
0.6029099053793862
0.4102178236863652
0.3860653539050815
0.26262955184021536
0.09537943466486382
0.20302279205497137
0.27400450766108986
0.2879274901103501
0.3189876082939393
0.40690316255090186
0.3981754539756797
0.4500360476075139
0.4690792520545047
0.5080586867995106
0.48572349429720346
0.38643594904782247
0.7495805550000713
0.9602409108664038
1.0102977248223999
0.8913011900595245
0.809552964839541
0.8936126439791818
0.9598737961166443
0.934615260017507
1.107624842170134
0.6604067471271711
0.6672904310264948
1.0228387972118669
1.3416230147273982
1.4254285887794123
1.4107741433745764
1.4698907371464662
1.5710431169517798
1.370379184668649
1.0549505765464646
1.0220161159527659
1.001445429882914
1.0657271009694977
0.8938880977698653
0.953877600815576
1.1204328605224778
1.4213937564876273
1.419989170771296
1.2952787728085875
0.9240996863585845
0.6782755757472491
0.8668302184937078
0.9635824293858078
1.291676645068522
1.0844859524432195
0.7594282884377368
0.9124394225719168
1.1215948186403066
1.0479229099232064
1.0177313561471804
0.8584321888358851
0.9273210774300581
0.4953867852579513
0.7283083095785371
0.769276406547054
0.8635654409080923
0.9786962930978534
0.6562375090273694
0.6830233915098407
0.36815392420371434
0.781921404223044
0.9044533480575175
0.7031016378614754
0.6185425332535879
0.45046740691728065
0.6185092883522215
0.6959450149247676
0.6575801367388403
0.6797108054587415
0.52781388581966
0.6294432892697254
0.6644284818802966
0.9743743060656151
0.7469552308921404
0.6638209955392934
0.4541937327303573
0.3034905756820718
0.4597862038700827
0.5575892176609176
0.6686143658325174
0.6744189459134013
0.8234166944055099
0.8281926292113704
0.8751375200704272
1.137290975177912
1.352036863116365
1.387859151800916
1.3712113630754768
1.5184071605547755
1.3415312339111485
1.4107741433745755
1.4423683969011452
1.53453327225326
1.03708583004113
0.9954055382661864
1.5077410251922876
1.2279787449984518
0.8512565307587491
0.675011600451075
0.5763142085036395
0.4778234797276556
0.5126975173351807
0.39790771071948156
0.3481209209741196
0.4467053036234081
0.42626089534896433
0.5728660955181412
0.5781885881487294
0.6035176397606674
0.6417817631939341
0.7600680692771881
0.7684956389812995
0.7622925250374379
0.6865433267366755
0.5396519353486152
0.39056013422043323
0.4121209825265815
0.6360340569565878
0.6870789628704429
0.8411199900618561
0.9862077284562722
0.9542051433515921
1.1223447239175983
1.3654614076914644
1.347457518925909
1.2748388689891008
0.9252037212089932
0.8512565307587491
0.865949673806411
1.0042066123621587
0.8874046629771137
0.9336314922611979
0.788710630767915
0.8056214823710262
0.9568343671688828
1.0845532717181487
0.5768117529696156
0.8883278559002528
0.8497152666707378
1.0353288327227228
1.1618695791071194
0.8530537714502364
1.0849769331741592
1.2070093473806138
0.7821547685927304
0.92417724746641
0.8020323213189269
0.8221142851199971
0.5417124611788463
0.8031325603555665
0.9165892463009074
0.8273526653587273
1.2202858558667158
1.300054120728924
1.1508283751924366
1.3608888110749204
1.261497269903188
1.1890216217168408
1.1680931950517748
1.265530191847521
1.1039352493631376
0.980375902237023
1.1944414807153845
0.4722437541740896
0.6679252289278831
0.8257382374997182
1.0668915143955413
1.0668915143955413
1.0826066163477452
1.1751328770165845
1.165691965825515
1.1420323125167868
1.1688595666910075
1.2414475137654108
1.0624669906102395
1.0142011219071756
1.3838449284842307
0.9087768036298758
1.384206731110719
1.615993396009635
1.0119719155618783
1.1277690984746318
1.0540925533894594
0.8656393951337725
0.9166984970282117
0.9000308568202973
0.8631113933565767
1.0141078647319266
1.0243712351744556
0.8348246756260941
1.3766515161612176
1.364052005655626
1.211533922754445
0.869312647405142
1.8520622286522286
1.6635721733131652
1.4728153664900907
1.9476053739424293
1.4434227480392108
1.102642282370259
1.0906428151914953
1.192231515548415
1.1477105231898543
1.0057204350312912
0.906003772423807
0.8086820535494907
0.8227228756504468
0.9783175228708954
1.1349008764297903
1.0232781556430415
0.8024814373978422
1.3080183394137685
1.3080183394137688
1.5197200030745406
1.3080183394137688
1.7240507708973656
1.246314704746562
0.7789290857610285
0.8739331243264347
0.9721415021716457
0.6629625903987642
1.1966934503127786
1.1039901898868028
1.1304874399550042
1.9248557569958031
2.1624622359106023
1.8364911914035593
1.8835458812536385
2.0188732156203475
1.6113408908546836
2.1451599997827677
1.9389260162894761
1.5154035999146316
1.6858464973986607
1.1436262387817286
1.3067924848808032
0.9741803064177086
0.7733160658567767
0.4051421063857426
0.35672518559959426
0.18225296941645414
0.09265334291321024
0.04792131903231808
0.04778233379620743
0.0632337530388185
0.07152029129618039
0.07255235084180896
0.06917442798903002
0.08214020701827719
0.10404132775415456
0.09792197396818755
0.06060066038506009
0.08721864993342697
0.14165402202560118
0.9814606729205209
0.8912194066532106
0.801892792822607
1.0072097281543073
0.9555281731992967
1.087473303207567
0.984705040518421
1.0704379604718928
1.149381979455778
0.6516243119982784
0.6492091552094836
0.3028255307255201
0.2332312027657036
0.19680801317101254
0.1878468609727082
0.11600097433796218
0.16139134369844144
0.20682508945139866
0.183227353650787
0.2124433790758749
0.15856924503684067
0.09760141623378023
0.09349706713929526
0.11225108122309992
0.0812082445011754
0.0947978702518548
0.11229828482390354
0.10060343032546844
0.10797934028700262
0.09767818122176894
0.11722800815506199
0.12917640713077527
0.15275786371384012
0.17732993940369415
0.32450217268980003
0.22331670953264646
0.3934329913015571
1.241599897808895
0.9794884994171261
0.8247012038775672
0.5444710421659993
0.4214434932353013
0.3559976292849072
0.26356591230973
0.19212040987510048
0.14641888039871734
0.13482295534213232
0.14531605547352855
0.1447787054432373
0.1350757377139801
0.1333336492231893
0.10494656903501924
0.12106885626528707
0.12967830537202119
0.1599398964917004
0.14450401693927825
0.15998035067938154
0.22615256854305157
0.3042196650155455
0.3855156247084956
0.43566027426044623
0.342510162260104
0.3034905756820718
0.42164322941212873
0.5663032924662406
0.5947954804986993
0.5674166502610798
0.6202100626143014
0.7335097540117071
1.4319187733256642
1.2886235352103717
1.3422671208000696
0.7630592310117408
0.4433790756023468
0.46042637225575
0.425725064180608
0.44207614989402405
0.32471713614630054
0.28746798487346703
0.2745860026865168
0.36401043080621875
0.37641240027554496
0.39106183112713433
0.5062559286008793
0.575496763067576
0.5924625291237706
0.4969948266515506
0.5523701822596575
0.8089299881681058
0.7531884517495758
0.47268825162996875
0.3786432692517603
0.34601633332821224
0.3836833044462679
0.3646312958024378
0.3946615721431441
0.3995531334788383
0.5660962846835393
0.4466214851754781
0.6395591783192933
0.7508031875847573
0.8576844335743049
0.6491467312207169
0.7165160608094008
0.5760955335564273
0.7246307675759651
0.735153001786007
0.7408576386304493
0.6521053125583636
0.5390411322528392
0.5194572163623427
0.5904228782756581
0.49129881959117383
0.9136200030480621
0.7396097634820223
0.9913281922662751
0.8181146814096921
0.8100509907633034
1.0829205772069284
1.1480676110432804
0.9818344551787801
1.0086425364129883
0.7507435122419293
1.1202827200655796
1.0705754551443774
1.1580973718536627
1.3181519867253257
1.1653962322860338
0.9468425425816592
1.2331820206685626
1.2431608590166912
1.1951242529872341
1.2559269648854863
1.0848694297061499
0.8281926292113704
0.992260209179515
1.0319661217455316
0.9104272295378846
1.2598044227460101
0.952432607364037
1.0417858902270827
0.5905044625822653
0.484897112644179
0.43846253119870776
0.4834379907969842
0.6391928415838413
0.4903461301090428
0.6177890339197084
0.5069230446804409
0.5150914937870683
0.5289263353875309
0.44594223873738986
0.37299384033431676
0.4776675695206239
0.3316363374463276
0.23755935674959544
0.24805774411816792
0.33319119555059734
0.445400189461361
0.41472455431344163
0.3193112152767378
0.2929121895878538
0.3811024247506043
0.426128269432146
0.3711532501954659
0.35428986464193457
0.3099307734615631
0.34584400848311364
0.3475432048541311
0.48814947309388396
0.5945846660482873
0.5561089182399768
0.7190108297874691
0.6604701914179413
0.9093581150854703
1.1499510590401434
1.0253008742454925
1.1004442491997133
0.9048228968245717
0.4722437541740896
0.6679252289278831
0.8257382374997182
0.6795616365143039
1.1622380020284897
1.1466329111396136
1.0158469666509307
1.4480305860646747
1.487519255142535
1.6785857687404262
1.2310754841370013
1.6145223745372936
1.5328234854553346
1.7626512615867311
1.316712005187753
1.0735319172538613
1.3940826810751579
1.3762424319973496
1.1864042169132045
1.2823150405935775
0.9369870138053988
1.2236528115476881
1.31120145006411
0.9739501533490162
1.0314212462587937
1.0895855558161496
0.671328633009462
1.0704518865494161
1.4144817888727883
1.3775086294456258
1.7787985432485485
1.9526813783396775
1.3482908917335437
1.4670951603094773
1.5491879350170104
1.6401595263562814
1.7264715088536244
1.640933902911725
1.4954370119084621
1.5925905924634238
1.312132797442348
1.0963592197853655
1.2311566731398593
1.1986605807931414
0.906488414386245
0.9825638593882156
1.2880410817188956
1.078858054177625
1.2697705075282095
1.0243712351744556
0.8348246756260941
1.2559269648854858
1.2645257816058824
0.9198414145259434
1.0064485583220033
1.493498911059753
1.69419266362294
1.255883449961284
1.561437385216077
1.1776691618774573
1.2113552833591172
0.9133052491576769
1.086270655207494
0.9985864008610937
1.0540173016937113
0.8901664606280885
0.7786118184019234
0.9528286133328223
1.0234162489330727
1.023416248933073
0.8898603457472604
0.7369980655279939
0.4389058649186558
0.6386999967038831
1.0658049699452707
1.1382625688163066
1.0103627378672677
1.2292135256794359
1.2492025344194961
1.4678727880289164
1.1076800743662731
1.2977445247742831
1.4670951603094777
1.4445437775261827
1.4738095695725242
1.4461418255916094
1.2259940373929896
1.3264983432059625
1.2893187638661912
1.2026701888930487
0.8683299526813459
1.2442086705253568
1.2854730686330844
1.037543591152635
1.1424345649216303
1.1654066049256102
1.1249220376817441
1.3480557102954627
0.9271272941806017
0.78411253733799
0.7908852726564576
0.8099281575524777
0.8887656279566776
0.8457225971983386
0.9823977842126247
0.8194089839348027
0.9121607658146645
1.2491080041066411
1.0396684411151835
1.1602207741735513
0.6208272432917488
0.4161620791718414
0.24242677413204913
0.16398875888236952
0.0744905955830544
0.06888293264267412
0.09864806387548072
0.11544172555646515
0.13815307890721917
0.14627519733407135
0.1309753817323681
0.12655014038027584
0.12847195036079953
0.11420272069654341
0.10969310433950517
0.13005748014213073
0.38202591636952243
0.5961510827083453
0.2922643675567858
0.2903489362462286
0.418173595025815
0.4587646373592932
0.45640106618342974
0.4670652470043407
0.279521054457352
0.26889572009842916
0.2607336175919462
0.22844368030800125
0.22559510088208307
0.19680801317101254
0.1878468609727082
0.2078650169156874
0.142777374929837
0.1306770183101369
0.15762524290687158
0.14065771946755457
0.09713242639435694
0.1155056861617329
0.11622448706601884
0.1163726328860387
0.11888272781389544
0.1361003521016053
0.1307290053566965
0.12258744907073237
0.0823060016875996
0.09542685319754997
0.21166385598184037
0.22398903969674794
0.5726395900285136
0.7616007554533665
0.8599909750291156
0.9547306581338246
0.8019588352246417
0.5022970549722021
0.351235674796967
0.1614765542695387
0.19796434670491067
0.1967948062610136
0.18517944449884302
0.18876147749085692
0.19076367618510692
0.21228507191751908
0.20116175520340815
0.1945699128622256
0.2047335801458735
0.22841764337551584
0.1627780158678523
0.20168548784218635
0.25727524913487054
0.19866499658613065
0.30876022770020783
0.4413157933954412
0.5974142080824427
0.4573706446242232
0.47010172236940834
0.6722606194807851
0.7281626124486361
0.758037402240121
0.6633860963540108
0.7366883364460566
0.9797202715484942
0.8198176905470921
0.9471696461629174
0.9189559607864739
0.7218076037207348
0.5451732116183313
0.49378152543998466
0.4799303180630447
0.5609955984130989
0.4730831147858434
0.46853551704648816
0.4103485002724282
0.45513629964000946
0.28916946505591484
0.43070651873885857
0.48450690488368253
0.4581466820458016
0.628994067900429
0.9734833687163577
1.2909223567131363
2.050300737814528
1.5298305049147924
0.8255097635124568
0.8107608833919597
0.6741331170169891
0.6024799233946873
0.6262824646031864
0.574872786949289
0.3918473636255983
0.390330758433089
0.8779886491139086
0.9573956013673252
0.9641391272774006
0.9402519271138557
1.1456036132032796
1.111658145488822
1.2414475137654108
1.4925371417930786
1.4657760938689153
1.050616283068314
0.7482661068484721
0.6660992986459937
0.7765766007971119
0.8635654409080923
0.6637250438663816
0.9860511269319723
1.103712329028067
0.712996941131322
1.3013418466188624
1.114483226213935
1.2323042483380857
0.6956368769807304
0.725647596217307
0.7326217254140074
0.8528829078801081
0.9679046984104146
1.074808273293789
0.9566978804909501
0.8557039961136432
0.8877432226642936
0.791767582529548
1.1154135896630284
1.2384290765557981
0.9968451479485227
1.0687203962749423
0.9954055382661864
1.4986255781959301
1.0426113043608312
1.330305042659464
1.2544351552458484
0.9319708177743832
0.6984075316604754
0.7573146173900857
1.0272936116559979
1.0221470626572569
0.7733298287511087
0.8453902153428462
0.7614431533338716
0.5622173581474075
0.6775145555669121
0.5591604901167035
0.5235857466737827
0.6692476182084568
0.7524512372383197
0.7082530180142281
0.6903498061601421
0.513763680386686
0.49239266313368985
0.5953322543453868
0.5586432069298042
0.5673937912471726
0.7042906775843807
0.7732569916025974
0.39341204901301247
0.5848343962708491
0.6553547515631605
0.6934118208807307
0.536754397261163
0.500873356765471
0.4308463231771853
0.7662875634640198
0.7935084776940877
0.6879530932679111
0.6475473800010331
0.6644876258202348
0.8633752559197617
0.9201782750794307
0.9600434299299355
0.6013303731607339
0.5063767736151613
0.523919903059208
0.643857717222969
0.9196507272228847
0.6411197508207437
0.6372653643524816
0.629496419796649
0.9899074725915727
0.8487660196066149
0.9181908929273156
0.7326252409444995
0.6085971816891473
0.5269159830477583
1.1509021630313807
1.508030212575165
1.4378491242809943
1.0625772871776273
1.2084906510014568
1.086291949594571
1.2599757107151695
1.2139356903224463
0.8159274929855199
1.1048911514720503
0.7884270363405118
0.5773699348277996
0.43334156651864114
0.5192504982231855
0.8847120155128345
0.7116067520425479
1.0235787012590272
1.0350114049129908
1.0272936116559979
0.895349853048284
0.7116258218910217
0.472755860188501
1.2340827343626797
1.3878818475763923
1.0978756248676353
0.991805866189843
0.835147721930364
0.7297802859647132
0.7043003676578453
0.6407596038352853
0.7100716024967263
0.9690269196033094
0.9403022639563071
0.8297613094641342
0.8048811068364369
0.6036277391872465
0.6270898912584532
0.6097459993585392
1.276255040783842
1.2591760869728377
1.063425097976097
0.9878281758014468
0.75241504253239
0.9241268707882662
0.9478182534897399
1.3575604660570155
1.199104083236754
0.7158732560589124
0.6803442147668339
0.6248802338041127
0.7341186008612761
0.8225151085936568
1.0072097281543073
0.9555281731992967
0.75241504253239
0.993242712974131
1.1494082905099172
1.2303504166078918
1.5908076819181063
1.4814343656720481
1.0189119070856467
1.137311366362628
1.312011954926898
1.235253609182458
1.1087809259682502
1.5000211759429742
1.5811596075435008
1.5998763644238954
1.3195490749263443
1.0933701331049248
1.2223740037619206
1.5081665500241623
0.9807333914789791
0.9807333914789791
1.0808902059099295
1.1196797280466342
1.042325618398592
0.9537917523895867
1.0026263120988206
0.8633752559197617
1.103712329028067
0.712996941131322
1.1460687718942146
1.0350114049129908
0.6572795304821695
0.7387489325669445
0.8063409280229084
0.527321739644864
0.8595245781276306
1.5278896857561435
1.6557551610319645
1.1632943094624495
1.0953310985220184
0.7899511275923963
0.2992281876883327
0.3766585055424166
0.15064290868920568
0.08527704882144256
0.08798576722864754
0.0631418799481603
0.08331494249262456
0.0949618653470451
0.16266198282255195
0.226126211561193
0.23726548424357302
0.24638278811602357
0.22661820723015694
0.20748268567006317
0.13815579987732937
0.2299300769187331
0.4848007836950559
0.7475875719802577
0.7266056388847805
0.6812084897057143
0.7696408631980824
1.0064153689405657
0.9369870138053988
1.1183181901599442
0.9027310557809195
0.7990213078102509
0.5983497296158841
0.279717849449214
0.27873277167781324
0.23167647639952652
0.2344965558844848
0.18286692716416456
0.2122848782380923
0.20182408192236453
0.1951819510951287
0.120512136939097
0.10628173508371885
0.05748986927579973
0.05637420123354425
0.10095282891545003
0.10784618949945199
0.10413049962127043
0.1509432412915749
0.17472632483899955
0.18909155416355
0.25210212383429664
0.2746160429450716
0.3936911369947566
0.4407123695566116
0.5728778271285417
0.9777145339467115
1.3192496665495193
0.43303764505409303
0.30321280900565056
0.21516216831665883
0.17129623283172415
0.20013400309935483
0.12008202568240536
0.14641238118779537
0.12605860804974278
0.14753789252020486
0.1389617381497765
0.127906221364361
0.1253864275322843
0.12957066897228856
0.09733750617901865
0.15803708337695016
0.1252682770969409
0.12039217734345257
0.2735057676731139
0.32670692337827584
0.19341020663531694
0.3078316986361199
0.38873470731231036
0.4436923682968665
0.4284265226582024
0.48379876900267765
0.5890476081477818
0.36815392420371434
0.5860117856663023
0.5660763693038406
0.4476079012266655
0.32782039045618877
0.2935836854498952
0.3498710044625556
0.3320774047776007
0.3502986269543348
0.257185934792101
0.21557390368206705
0.2366800919013779
0.3030213784307343
0.3367031596752103
0.3935242806892145
0.40350001746951436
0.4199292230054519
0.42682928725587044
0.42438889517820316
0.3403811874096634
0.34927980889502436
0.3502986269543348
0.257185934792101
0.3689063551144293
0.6194055777447224
0.9180541401689876
0.9807333914789791
0.8587165450339578
0.6923572540785544
0.4583255135496304
0.5636623733827089
0.591429208314817
0.790961953661925
0.990445039028784
1.4003333015432236
1.2355144910578657
1.364014692433502
1.3197185203436892
1.0210740907209883
1.160796290221307
0.7707413728527869
0.7377556651107758
0.792305999620726
0.9313480516454792
0.8375108306322359
0.735964677223444
0.5748731548711553
0.44080298778580396
0.5405724187417146
0.6092480596781955
0.6256516906758153
0.7008133649796046
0.6159957590831037
0.5980318064672364
0.8986482166955352
1.1575161109205518
1.19277716865451
0.7092311821795068
0.5979274068720872
0.47441918258869376
0.7250160216208904
0.7587686644543796
0.4679659953775355
0.35700701735061613
0.34331340927805104
0.4945939030585848
0.5444595318202547
0.5696012098122228
0.9915392785731554
0.8005265718006653
0.6766627350961113
0.8140566909963659
1.054980641254059
1.0210740907209883
1.5634721789084634
1.165691965825515
1.1606410571819172
1.1210565568465953
0.9158914552063804
0.4802316166442443
0.42151632421545165
0.3945803920412801
0.4510846524331325
0.5138054417848529
0.4676741290238301
0.49499712894524417
0.5073259454076219
0.43445834052418303
0.4510846524331325
0.5138054417848529
0.4676741290238301
0.43284981451188703
0.4130362646836755
0.33275414806788156
0.47385065311794244
0.5484173011671365
0.5144782011385878
0.4675316012061538
0.4130362646836755
0.5125787065119904
0.6469748314588456
0.7419090230777258
0.5742408784780689
0.4765508985905599
0.6329386782641306
0.8666768479293181
0.7850785379024977
0.860705115662869
0.6879530932679111
0.6475473800010331
0.6935610659259107
0.8857058954851396
1.0048321831593618
0.753801327201141
0.6013303731607339
0.5063767736151613
0.523919903059208
0.5561923767582921
1.1061789784583862
0.997374619023387
1.0015088888767727
0.9739501533490162
1.1376184977737644
1.1902027627145055
1.3300603915606208
1.8050210792851646
1.8029093001165402
1.1694481888442185
1.3621886423068628
1.8383246767469177
1.6025210509795569
1.7015783306768428
1.4959540663150612
1.386045302359848
1.3626976655263638
1.1096390730196009
0.9858272957690036
0.8714752888220635
0.911639625418876
1.0467270765645236
1.0340974775978065
1.331060991906344
1.3139522132332697
0.9249061064148428
0.8668251506175707
0.8886751912715157
1.2799306760857299
1.6367945923656433
1.7939874036898096
1.1236922508572287
1.4399998092966078
1.025357938751474
0.8478492704712411
0.8107659608814531
1.1792788946144346
1.0495954540083887
0.9158914552063804
0.9254452187120257
1.0983492461697242
1.2240450091352044
1.2494710276158043
1.082091981865273
1.0189309910728648
0.6604701914179413
0.8108490213653277
0.9425310114408001
1.3215577501497573
1.364052005655626
1.211533922754445
1.6565658911908707
1.6025210509795575
1.37125470034095
1.3346933656593856
1.1649342646466483
1.3087836730064966
1.0100749601776726
0.8460477676144205
0.9217637394271734
1.1723790323066055
1.0430234076725309
1.0106473962953626
0.9537917523895867
1.1680931950517748
1.3122010414303624
1.1452954833974367
1.141886417940842
1.0936434376681337
0.8534744346770069
0.8152343458500462
0.6930653813885834
1.020961281985315
1.2288179113111228
1.1459961073198541
1.0966581748817208
1.0910894511799634
1.2868907965088856
1.0704659396412846
0.5768117529696156
0.8883278559002528
0.8497152666707378
1.2067446199668466
1.1618695791071194
1.2067446199668461
1.1756202329406413
1.1145498219414631
1.2235575899606104
1.3731813197996823
1.7939874036898096
1.1561722550569329
1.0059652207287184
0.9755039372445463
1.0461129194250047
0.7796256081584353
0.9815100486235968
0.6979434699605268
0.596770492621867
0.3464992716417391
0.16174878025751926
0.1117996720742749
0.09127218866669119
0.20547579934689503
0.2674456913875959
0.274145724140992
0.2800862789423956
0.3233296507107755
0.36886941619723906
0.3821940436039785
0.2679488431238468
0.13815579987732937
0.22662334498556552
0.4848007836950559
1.1425615477967748
0.9920270121160432
0.42408228541068954
0.8175963846701014
0.8708222003169396
0.8381049651125302
0.630922879726361
0.34105274031413724
0.2910875131529348
0.2068263841978902
0.17004634057455312
0.1432599362069341
0.1609033248150367
0.1523791051806864
0.12634379800209064
0.1090193091777254
0.09294642834080519
0.09628424734278193
0.09958873824899889
0.10115746590830559
0.13230749942165138
0.10077370084677921
0.1580906411809379
0.1159105994257461
0.1319748739470739
0.19146922087611748
0.23092687964076877
0.3552142477019957
0.32814618815104063
0.6018321562254076
1.0995958237271337
0.6923210507770453
0.30321280900565056
0.15488395349800943
0.16694835388524099
0.2252421921510556
0.18185600705552213
0.16805736294455112
0.14641238118779537
0.12605860804974278
0.10582054965758762
0.09837570290130493
0.1077681817932093
0.07513823139120289
0.15299547962588278
0.1252682770969409
0.12039217734345257
0.29031203439648595
0.3672654245598848
0.3772769244844164
0.3300591731870056
0.4797175427943568
0.38508200586432406
0.41664547096114046
0.49781359732505454
0.5268772932095038
0.7263332194701778
0.6821295470375542
0.7179958709883065
0.5936471645240012
0.8137325460979634
0.5608129034360033
0.5247343918225931
0.5103276240736153
0.599134368456335
0.34070796499644485
0.4056542383581591
0.4161495551460811
0.3078316986361199
0.3403811874096634
0.3172699353666862
0.48989077784591445
0.5527218071094142
0.4483611012392441
0.4634538728707771
0.6307788085844694
0.7755293354862905
1.0082127189801766
0.9928169539877868
0.7556343673588313
0.5760955335564273
0.5938564105969754
0.5745667248945551
0.4849145678859379
0.5000125156556017
0.5735618965195732
0.5980318064672364
0.8986482166955352
1.317539222348992
1.4044893379098367
1.3502111171312297
0.9319708177743832
0.559821508181269
0.6366291557016519
0.7893457491511616
0.6658643966568873
0.6450575425577065
0.689974264325346
0.4431985306206975
0.6347349977183588
0.8388972876857068
0.9465632585718965
0.544236226126492
0.5621211953981173
0.6217680862048677
0.8408512148689041
0.7060799405335602
1.0034540991538878
0.892177957583868
0.8621901452412496
0.813643696778532
0.942768549338422
0.8086820535494906
0.9235703003174652
0.8370738554316735
0.6999304261258931
0.5810612675260777
0.6344437722395292
0.41460251697296363
0.3153298896903386
0.2971364324057839
0.29853799710373957
0.3776842844987795
0.5384922765260914
0.6159349880281746
0.6631029617986542
0.5811034057013215
0.5595151688419762
0.44080298778580396
0.49378152543998466
0.4799303180630447
0.4957891763503906
0.5506216143292821
0.4166298555117432
1.1480085161254687
1.0940709656541638
1.0390108195262173
0.6590818507162869
0.7383454133846666
0.7104587028436987
0.40504873585101514
0.3239593622818528
0.21343218194912797
0.3188484795503912
0.26842116820476813
0.23193726114239255
0.3162012687657422
0.3242756280241233
0.3138514862586749
0.37851449464821435
0.39102460465080724
0.3980623947429336
0.4064653176623473
0.3239593622818528
0.3225601637703751
0.4011885246407924
0.4274557777446575
0.42648208709267466
0.6933731916220782
0.6642373970116643
0.5910076733557545
0.6115362661262095
0.6474530440690003
0.6646940000425029
0.6333777592537038
0.6812293287242854
0.6951823745123311
0.4389058649186558
0.6386999967038831
0.835147721930364
0.8756227926458323
0.6820479779479965
0.3580428882330039
0.7361061375382834
0.7801415212959075
0.8340442993569605
0.862382337884175
0.8447262763681284
0.8451353249183909
0.9337057117286921
1.1262017579157524
1.2608638348198853
1.1227541265262946
0.8901664606280885
0.7786118184019234
0.92417724746641
0.8796018849918286
0.8000227057867055
0.9600434299299355
0.7396506741577703
0.591429208314817
0.7438132550879505
0.8203292150036751
1.028354309207571
