1.2328789467655763,1.847272221738391
1.2328789467655763,1.7663413026456818
1.2328789467655763,1.7663413026456818
1.2328789467655763,1.7663413026456818
1.3296659821074914,1.806865148785381
1.4328717133104538,1.806865148785381
1.5643238570695974,1.806865148785381
1.3570019697566924,1.8735393020547582
1.2999700829624126,1.891447015726927
1.2999700829624126,1.891447015726927
1.2799594323658112,1.891447015726927
1.2054964146583027,2.0342364068110146
1.0526648975953754,2.01140245470334
1.0177782204755699,2.0342364068110146
0.9071343588322636,2.0342364068110146
0.8832623427868758,1.9988456838226247
0.817070192599999,1.9988456838226247
0.6966863346253571,1.9988456838226247
0.6427355525671825,1.9988456838226247
0.5707194405454237,1.9988456838226247
0.4383221561850859,1.9988456838226247
0.4383221561850859,1.9988456838226247
0.4383221561850859,1.9988456838226247
0.4383221561850859,2.2678429038025874
0.4383221561850859,2.2096400721192895
0.4383221561850859,2.2096400721192895
0.4383221561850859,2.2096400721192895
0.4383221561850859,2.0696071832593774
0.46537687674548217,2.0696071832593774
0.46537687674548217,2.0696071832593774
0.46537687674548217,2.0594616300197566
0.46537687674548217,2.0288601768980334
0.46537687674548217,2.0288601768980334
0.46537687674548217,2.0288601768980334
0.46537687674548217,2.0288601768980334
0.46537687674548217,2.0288601768980334
0.46537687674548217,1.9096749851843309
0.46537687674548217,1.9096749851843309
0.46537687674548217,1.9067695178759845
0.49178560806023824,1.8873719568896241
0.6233665387947571,1.8873719568896241
0.617079862590489,1.8873719568896241
0.49178560806023824,1.9067695178759845
0.4484201685146771,1.9067695178759845
0.4146878975080341,1.9067695178759845
0.4146878975080341,1.9067695178759845
0.4146878975080341,1.9067695178759845
0.3869079328954494,2.1719721785421484
0.3846731458710455,2.1719721785421484
0.38311679644265223,2.1719721785421484
0.38311679644265223,2.2121301149441512
0.36740811252798833,2.2408008991732475
0.3582073880399232,2.2467065978320115
0.3582073880399232,2.1746022497374784
0.3582073880399232,2.1746022497374784
0.3582073880399232,2.1746022497374784
0.3582073880399232,2.1746022497374784
0.3582073880399232,2.1746022497374784
0.3582073880399232,2.1746022497374784
0.3582073880399232,2.1753103574592494
0.3582073880399232,2.2121301149441512
0.3582073880399232,2.1753103574592494
0.3024508307204521,2.1746022497374784
0.365782174741656,2.0858683711819106
0.4009722168704923,2.0056599904146295
0.5510592794395718,2.0858683711819106
0.5881247446165041,1.7908255851219752
0.638987247255094,1.7908255851219752
0.638987247255094,1.7908255851219752
0.638987247255094,1.7721097182248584
0.638987247255094,1.7332188240932322
0.7893829261124067,1.7332188240932322
0.9665015043525726,1.7332188240932322
1.1253766410591435,1.7332188240932322
1.2477741129050348,1.7383872618784992
1.3022613070624203,1.7908255851219752
1.3665985458699632,1.7908255851219752
1.4362364559455754,1.7383872618784992
1.4362364559455754,1.7332188240932322
1.3665985458699632,1.7332188240932322
1.3665985458699632,1.7383872618784992
1.3665985458699632,1.7383872618784992
1.1361061310347453,1.5396255578434672
0.9661520428307276,1.5396255578434672
0.9537384709079604,1.5396255578434672
0.9537384709079604,1.5396255578434672
0.9537384709079604,1.5396255578434672
0.9537384709079604,1.7092066900926544
0.9537384709079604,1.7841754009555284
0.9537384709079604,1.7841754009555284
1.0507917724138667,1.7841754009555284
1.3375299807079069,1.7841754009555284
1.5022222805683332,1.8062392146185817
1.643225870554694,1.887140265915095
1.7951072009696663,1.9245228797921368
2.0089599674559073,1.97408890763135
2.0466083929405987,1.97408890763135
2.303435478114585,1.8062392146185817
2.3233041015072238,1.8133123088076673
2.346945559535111,1.849843453111605
2.428138437652249,1.9245228797921368
2.533959593391503,1.9245228797921368
2.491621379364162,1.9245228797921368
2.491621379364162,1.8903912418931181
2.491621379364162,1.8903912418931181
2.491621379364162,1.8903912418931181
2.533959593391503,1.849843453111605
2.6257256106583466,1.8133123088076673
2.533959593391503,1.849843453111605
2.523035210590874,1.8903912418931181
2.3587084781597474,1.9191587929126632
2.107974338829386,1.8903912418931181
2.019217075872168,1.8903912418931181
2.019217075872168,1.8242585612533393
1.9985879840982137,1.4885278788682483
1.9985879840982137,1.4885278788682483
1.9897419774135605,1.4885278788682483
1.9897419774135605,1.3677460457671908
1.9880959599650057,1.3677460457671908
1.864357181067549,1.3255058428590272
1.8365288726569324,1.3255058428590272
1.8365288726569324,1.3255058428590272
1.852457054740459,1.3255058428590272
1.864357181067549,1.3677460457671908
1.9338037030624027,1.3677460457671908
1.864357181067549,1.3255058428590272
1.852457054740459,1.3255058428590272
1.852457054740459,1.3255058428590272
1.9054531160893555,1.3996080332148815
1.852457054740459,1.3996080332148815
1.9054531160893555,1.507109291245663
1.9054531160893555,1.4306658678019686
1.8661172741983523,1.4306658678019686
1.8661172741983523,1.4306658678019686
1.823132951141822,1.4306658678019686
1.823132951141822,1.4306658678019686
1.823132951141822,1.4306658678019686
1.8661172741983523,1.507109291245663
1.815973453691816,1.507109291245663
1.815973453691816,1.507109291245663
1.8282311270917362,1.507109291245663
1.8282311270917362,1.6729934018177017
1.8396902373341666,1.6729934018177017
1.8282311270917362,1.414302524812566
1.8282311270917362,1.414302524812566
1.8396902373341666,1.414302524812566
1.897810822312527,1.5077410251942174
2.0033875993922834,1.5077410251942174
2.0065245460387255,1.6729934018177017
2.067165253350622,1.6729934018177017
2.081168327733884,1.6729934018177017
2.3141925268426697,1.6729934018177017
2.4637165130024647,1.8355908841470583
2.657277553314167,1.8834341139283555
2.717558092410002,1.887739237585931
2.58136649099354,1.9432905598938903
2.5044040742927454,1.9432905598938903
2.2271508369670068,1.887739237585931
2.0312161348686764,1.8395724742273205
1.8177785157274473,2.2511597980038283
1.8177785157274473,2.2511597980038283
1.7012010550991827,2.2511597980038283
1.6243739203872294,1.8395724742273205
1.521233768930128,1.7298879591996787
1.434043946260587,1.7298879591996787
1.328464189377545,1.7298879591996787
1.328464189377545,1.7298879591996787
1.328464189377545,1.7298879591996787
1.328464189377545,1.7298879591996787
1.328464189377545,1.7298879591996787
1.328464189377545,1.7298879591996787
1.328464189377545,1.7298879591996787
1.3123840762288976,1.7298879591996787
1.2297297382176584,1.7802253092117113
1.0799770478715065,1.7802253092117113
0.8199134730529647,1.7802253092117113
0.7721999282902537,1.7802253092117113
0.7721999282902537,1.7802253092117113
0.7721999282902537,1.7802253092117113
0.7721999282902537,1.8329850789304711
0.7721999282902537,1.8018227871492298
0.7721999282902537,1.8018227871492298
0.7721999282902537,1.7523053521885767
0.7721999282902537,1.7523053521885767
0.8429316741980457,1.7523053521885767
0.9252419894366303,1.7523053521885767
0.8640323856732334,1.8329850789304711
0.9252419894366303,1.6126325445319527
0.9276548012496576,1.6126325445319527
0.9276548012496576,1.6126325445319527
0.9276548012496576,1.6126325445319527
0.9276548012496576,1.8802000585738903
0.9276548012496576,1.8567241426509227
0.9276548012496576,1.8567241426509227
0.9276548012496576,1.8567241426509227
0.9276548012496576,1.8567241426509227
1.051056970182665,1.8567241426509227
1.0783153187716161,1.6517756716287582
1.1663087878904743,1.6517756716287582
1.2430659202635497,1.6475497630922349
1.2530145474474805,1.6475497630922349
1.3721618914014537,1.6475497630922349
1.5074403162422554,1.6475497630922349
1.635155986343994,1.6475497630922349
1.9234056138053284,1.8706518067842326
2.08634411166838,2.1026218301897868
2.1975382060029274,2.1026218301897868
2.3719610536598177,2.1026218301897868
2.503537956649631,2.477610158224822
2.5923716437256537,2.483380291356679
2.7696455882930233,2.548268186592884
2.8063423522736084,2.548268186592884
2.8063423522736084,2.548268186592884
2.8063423522736084,2.6262470998772853
2.8662566559158065,2.6262470998772853
2.8662566559158065,2.5856548076549277
2.8662566559158065,2.5145053011216554
2.8662566559158065,2.477253513487323
2.8662566559158065,2.477253513487323
2.8662566559158065,2.477253513487323
2.8662566559158065,2.477253513487323
2.7138643373792934,2.477253513487323
2.7138643373792934,2.477253513487323
2.7138643373792934,2.477253513487323
2.7138643373792934,2.477253513487323
2.7138643373792934,2.5256891867196494
2.936573246634381,2.699505194629875
3.120220420025852,2.699505194629875
3.1105552568220007,2.721405636199697
3.1105552568220007,2.7361832932712327
3.1105552568220007,2.721405636199697
3.0550503713904553,2.699505194629875
3.302002327459669,2.544326021247779
3.3031748455925602,2.544326021247779
3.3031748455925602,2.531370026914353
3.0550503713904553,2.4941897367294277
3.033823819980579,2.4446014452540825
3.033823819980579,2.4446014452540825
3.033823819980579,2.4941897367294277
3.1423603949474304,2.411257266078999
3.033823819980579,2.234689538943528
3.0039738565074305,2.234689538943528
2.8959411911170885,2.20871466434963
2.8959411911170885,2.20871466434963
2.8959411911170885,2.20871466434963
2.865168739287014,1.8770694518606206
2.7656020765859326,1.788520395714962
2.5730010298204857,1.7293218047597025
2.5730010298204857,1.7293218047597025
2.5730010298204857,1.7293218047597025
2.5730010298204857,1.628500578676363
2.5730010298204857,1.628500578676363
2.5730010298204857,1.7293218047597025
2.5730010298204857,1.7293218047597025
2.5730010298204857,1.7293218047597025
2.5730010298204857,1.7293218047597025
2.5730010298204857,1.7293218047597025
2.6340803822589955,2.1075867817287475
2.4456507203802085,1.7173600707215122
2.3421097783160376,1.6680794109543744
2.3421097783160376,1.6680794109543744
2.3421097783160376,1.7173600707215122
2.4198807862828993,1.7173600707215122
2.404776588185184,1.7173600707215122
2.404776588185184,1.9718613901208897
2.404776588185184,1.9718613901208897
2.404776588185184,1.9718613901208897
2.404776588185184,1.9718613901208897
2.404776588185184,2.06208219507891
2.4198807862828993,2.280977150572677
2.7477119282783233,2.4018823791759956
2.963273108418709,2.4018823791759956
3.017609272081676,2.4018823791759956
3.1079715988184753,2.4018823791759956
3.2446806613953907,2.4018823791759956
3.2446806613953907,2.3134569605516764
3.2446806613953907,2.3134569605516764
3.2138626838704423,2.3134569605516764
3.2138626838704423,2.3747423846009426
3.2138626838704423,2.3747423846009426
3.251981965659934,2.3747423846009426
2.995985595756294,2.3747423846009426
3.1292188192442314,2.475060156898064
3.1292188192442314,2.475060156898064
3.1292188192442314,2.475060156898064
3.1292188192442314,2.3134569605516764
3.1292188192442314,2.239361177115075
3.1292188192442314,2.239361177115075
3.211444432617646,2.2362832900435197
3.211444432617646,2.2263914251629653
3.147823994274962,2.1332600630220577
2.588625125072489,2.1287486927263313
2.7165706668577414,2.1205726489594148
2.346590237798771,2.1205726489594148
2.319181244464696,2.1205726489594148
2.045926427282739,2.1205726489594148
1.5805889310291448,2.045870731184474
1.5510650789521483,1.8579735701306683
1.5510650789521483,1.8389101517128887
1.5510650789521483,1.8389101517128887
1.5510650789521483,1.8389101517128887
1.5510650789521483,1.8389101517128887
1.5510650789521483,1.9227279400816257
1.5510650789521483,1.9397657750959756
1.5805889310291448,1.9397657750959756
1.4399923438947655,1.9397657750959756
1.4399923438947655,1.9397657750959756
1.4705681235646932,1.9880959599654329
1.3987064563775673,2.020581838453211
1.0432251003218278,2.0258273569728114
0.8649387504490021,2.1361575462183127
0.6578386877695104,2.133489657180397
0.6578386877695104,2.1361575462183127
0.6578386877695104,2.119964623470994
0.6578386877695104,1.9880959599654329
0.5891639741177558,1.9880959599654329
0.5891639741177558,2.1361575462183127
0.566626177290791,2.1361575462183127
0.5412565329607556,2.089245867444804
0.5168492770742847,2.0013010538631875
0.5168492770742847,1.9396804565932892
0.5056144827693052,1.9396804565932892
0.4954632900487435,1.9396804565932892
0.45440818642572334,2.0013010538631875
0.44824574297038955,2.0364918483309267
0.44824574297038955,2.0760869562189956
0.44824574297038955,2.0760869562189956
0.42003255595871253,2.0760869562189956
0.42003255595871253,2.0760869562189956
0.42003255595871253,2.1401923779907572
0.42003255595871253,2.1401923779907572
0.42003255595871253,2.1401923779907572
0.42003255595871253,2.0760869562189956
0.4599588042742898,2.066605563118778
0.4940411290695525,2.0364918483309267
0.4977482474377668,2.066605563118778
0.5064971323262051,2.017926720499531
0.5688051457390263,2.0167223534902248
0.5688051457390263,2.0167223534902248
0.5832317318350084,2.0167223534902248
0.513743224235479,2.0167223534902248
0.5064971323262051,2.0167223534902248
0.39669406907277727,2.0167223534902248
0.39669406907277727,2.0167223534902248
0.39669406907277727,2.0167223534902248
0.39669406907277727,2.0167223534902248
0.39620960567440416,2.0167223534902248
0.3780973661979069,2.1119441072933522
0.37733499481764393,2.1119441072933522
0.31500616796380765,2.1289312432611744
0.31500616796380765,2.1289312432611744
0.31500616796380765,2.1289312432611744
0.31500616796380765,2.1289312432611744
0.31500616796380765,2.1693930476416963
0.31500616796380765,2.292012137420852
0.31500616796380765,2.294714568542458
0.31500616796380765,2.1693930476416963
0.37619240848057306,2.1289312432611744
0.37756649850975166,2.0818069019234757
0.45989310022399743,2.1289312432611744
0.5733380158260822,1.896899826368628
0.6839657509930511,1.826826420087255
0.6839657509930511,1.818358018083732
0.6839657509930511,1.7744898978140362
0.6839657509930511,1.7718581685895043
0.6839657509930511,1.7716702881352622
0.7171146530376428,1.7716702881352622
1.019748852001489,1.7716702881352622
1.1751923843276646,1.7718581685895043
1.1987400282991334,1.7718581685895043
1.216993672479582,1.7718581685895043
1.2946951141602094,1.7398341469667638
1.2946951141602094,1.7184060873391311
1.2946951141602094,1.7184060873391311
1.2946951141602094,1.6907431236061312
1.2946951141602094,1.6684636454462711
1.2946951141602094,1.6327893895156933
1.285183198052819,1.5961489057935248
1.0608469417493158,1.5961489057935248
0.9293174812802562,1.5961489057935248
0.9293174812802562,1.5961489057935248
0.9293174812802562,1.5961489057935248
0.9293174812802562,1.5961489057935248
0.9293174812802562,1.5961489057935248
0.9293174812802562,1.5961489057935248
1.022980400767989,1.5961489057935248
1.1556772190915852,1.6038272234559023
1.277472017111778,1.7759280775188875
1.3698948246517595,1.8274596305758246
1.4617608444092283,1.7759280775188875
1.7266157163130436,1.7759280775188875
1.8763767997182985,1.926112584725118
1.8946069413109223,1.926112584725118
2.001558138282358,1.9765339201177763
2.0715325076373388,1.9679024165218748
2.130682580498364,1.926112584725118
2.1547957110076914,1.5616242822713993
2.1547957110076914,1.5616242822713993
2.1547957110076914,1.5616242822713993
2.130682580498364,1.4131610154309429
2.130682580498364,1.4131610154309429
2.1349905460155516,1.4131610154309429
2.0715325076373388,1.4131610154309429
2.0519471158188516,1.4131610154309429
2.0519471158188516,1.4131610154309429
2.0519471158188516,1.4131610154309429
2.0519471158188516,1.4520155120355092
2.0519471158188516,1.7574333868269716
2.0519471158188516,1.7574333868269716
2.0519471158188516,1.7574333868269716
2.0519471158188516,1.9094756429236603
2.0519471158188516,1.9094756429236603
2.0519471158188516,1.9094756429236603
2.0519471158188516,1.9094756429236603
2.139734928100253,1.6406257662021466
2.1249524833730176,1.6406257662021466
1.9377109967682051,1.6406257662021466
1.9241794624191868,1.6406257662021466
1.8378197177651105,1.3647454425497443
1.7087481900697916,1.3647454425497443
1.6924700283079,1.3647454425497443
1.6579182119535985,1.3647454425497443
1.6579182119535985,1.6406257662021466
1.6276082982515743,1.6406257662021466
1.621398718493949,1.6406257662021466
1.5622558455888833,1.3647454425497443
1.5622558455888833,1.3647454425497443
1.5361696230286601,1.3647454425497443
1.5361696230286601,1.600778104406096
1.5361696230286601,1.600778104406096
1.5361696230286601,1.341724084370608
1.5361696230286601,1.341724084370608
1.5361696230286601,1.341724084370608
1.5439302985716326,1.341724084370608
1.5622558455888833,1.5205988323609774
1.6276552600820482,1.5205988323609774
1.6428924244782983,1.5205988323609774
1.6428924244782983,1.3874806439172405
1.6428924244782983,1.3874806439172405
1.6860539588598038,1.3874806439172405
1.6950444524404995,1.5205988323609774
1.8127142159793181,1.6031725985413503
1.8138000798042904,1.6031725985413503
1.8138000798042904,1.390048416032155
1.8379557029199929,1.390048416032155
1.838383131436088,1.390048416032155
1.848858180570018,1.4449734172206035
1.8873324865975096,1.4449734172206035
1.9031913278406478,1.4449734172206035
1.9873185921177268,1.4449734172206035
1.9873185921177268,1.4449734172206035
1.8760144556958986,1.390048416032155
1.707346881302711,1.2720459997258262
1.6066679638412544,1.2720459997258262
1.572163213964601,1.4449734172206035
1.5681779888174041,1.479534818248959
1.3477643372864012,1.479534818248959
1.182235197124654,1.3509960877783351
1.1749215265806348,1.3509960877783351
1.1017278857459958,1.6764002723103106
1.0513036934057545,1.6764002723103106
0.9822353676513229,1.6764002723103106
0.9205816447608607,1.6764002723103106
0.6859690864515686,1.6764002723103106
0.6859690864515686,1.6764002723103106
0.6859690864515686,1.6764002723103106
0.6643395158006928,1.6764002723103106
0.6024000660997266,1.9094614500641625
0.580799008734329,1.9094614500641625
0.5566780391304236,1.9094614500641625
0.5566780391304236,1.9094614500641625
0.5566780391304236,1.9094614500641625
0.5566780391304236,1.9094614500641625
0.5566780391304236,2.022602074587256
0.5566780391304236,1.8373060014908726
0.5566780391304236,1.8373060014908726
0.5566780391304236,1.776253003285905
0.5608859903421461,1.776253003285905
0.7215751432563754,1.776253003285905
0.7381756054467381,1.776253003285905
0.8869388607703836,1.5089554250539732
1.034237462549042,1.4480650420561711
1.131226312594282,1.4480650420561711
1.2218587200847468,1.4480650420561711
1.415062124744426,1.4480650420561711
1.4342667365051456,1.5089554250539732
1.4596087436868508,1.5089554250539732
1.5503670425109273,1.510208839195817
1.5852843174456828,1.3367279567987793
1.5852843174456828,1.3367279567987793
1.7641478527988932,1.3367279567987793
1.7820953696425363,1.3367279567987793
1.8988629530296746,1.2994693263093064
1.9106910980458816,1.0486431942345342
1.9106910980458816,1.0486431942345342
1.9106910980458816,1.0486431942345342
1.9106910980458816,1.0486431942345342
1.9730343038766924,1.0486431942345342
1.9730343038766924,1.4883879459412153
1.9730343038766924,1.5682673673340888
1.9730343038766924,1.5682673673340888
1.9730343038766924,1.5682673673340888
2.300415481926863,1.5682673673340888
2.300415481926863,1.5682673673340888
2.5729366466632704,2.218453042612531
2.7420877462450433,2.207306290547233
2.7420877462450433,2.112585001259827
2.7420877462450433,1.4883879459412153
2.7420877462450433,1.4883879459412153
2.5729366466632704,1.571204326843458
2.5558959210844088,1.571204326843458
2.5558959210844088,1.571204326843458
2.5558959210844088,1.571204326843458
2.5558959210844088,1.571204326843458
2.61022439636847,1.571204326843458
2.606975556243871,1.571204326843458
2.606975556243871,1.571204326843458
2.606975556243871,2.1366025814372183
2.606975556243871,2.1702062374121978
2.606975556243871,2.371859223341697
2.6400534458954628,2.4715843100487884
2.930407988798698,2.4715843100487884
2.99724461256504,2.530561166472211
2.7240819068383892,2.371859223341697
2.606975556243871,2.389450133800057
2.606975556243871,2.389450133800057
2.7240819068383892,2.389450133800057
2.7240819068383892,1.9835388147228596
2.6370845393595115,1.5759992881854978
2.604019817774147,1.541460364813322
2.604019817774147,1.541460364813322
2.604019817774147,1.541460364813322
2.604019817774147,1.541460364813322
2.604019817774147,1.541460364813322
2.7065864019916033,1.5759992881854978
2.7344780394633337,1.8463221849502567
2.7344780394633337,1.7110811676882036
2.7741424973044744,1.7110811676882036
2.7741424973044744,1.8463221849502567
2.7741424973044744,2.1060895158832573
2.7749590597431957,1.9825042227336014
2.7749590597431957,1.8463221849502567
2.7749590597431957,1.8463221849502567
2.7749590597431957,1.8463221849502567
2.7749590597431957,1.8463221849502567
2.644895224750013,1.8463221849502567
2.2306746344922117,1.8496793052385134
2.199752759545836,1.8982304961015652
2.01054400805328,1.8982304961015652
2.01054400805328,1.8982304961015652
2.01054400805328,1.8982304961015652
2.01054400805328,1.9678570168366316
2.01054400805328,2.1786120284378865
2.01054400805328,2.1786120284378865
2.01054400805328,2.1786120284378865
2.01054400805328,2.1786120284378865
2.01054400805328,2.1786120284378865
2.2925914689517315,2.2296466601487412
2.616011067833965,2.3172697701229255
2.795181201052127,2.3172697701229255
2.9010729233483574,2.0315564997606703
2.9010729233483574,1.9797461847051012
2.9010729233483574,1.8485562983112083
2.945822955928764,1.8150035278206953
3.107794650022496,1.638397576430776
2.908926104474589,1.4282316603509817
2.908926104474589,1.4282316603509817
2.908926104474589,1.4282316603509817
3.077192540047363,1.4282316603509817
3.107794650022496,1.4156455595019481
2.908926104474589,1.380702454136255
2.908926104474589,1.380702454136255
2.908926104474589,1.4156455595019481
2.908926104474589,1.4156455595019481
3.107794650022496,1.4156455595019481
2.7108639130431578,1.9911451976688865
2.6279287737181733,1.9911451976688865
2.5424290771892233,1.826731796003513
2.5424290771892233,1.826731796003513
2.5424290771892233,1.826731796003513
2.5424290771892233,2.197508319260996
2.5424290771892233,2.2967702825761145
2.5424290771892233,2.3195345003322614
2.5424290771892233,2.3843325359832916
2.5424290771892233,2.2967702825761145
2.5424290771892233,2.163962247216252
2.781029239370645,2.163962247216252
2.5424290771892233,2.163962247216252
2.781029239370645,2.373200762055796
1.5604423808990981,2.373200762055796
1.5604423808990981,2.2967702825761145
1.3328128403203752,2.163962247216252
1.3328128403203752,2.163962247216252
1.3328128403203752,2.041518265071433
1.3328128403203752,2.041518265071433
1.2802338574765522,1.966199764094552
1.0898950756541932,1.8910710752346536
1.0898950756541932,1.7725699855537298
1.0898950756541932,1.7725699855537298
1.3328128403203752,1.7725699855537298
1.3737203742596018,1.7725699855537298
1.5452955487424784,1.81826189482564
1.5757504731232848,1.8910710752346536
1.4279889047003742,1.8933622102311742
1.3856924012008036,1.8933622102311742
1.3856924012008036,1.8933622102311742
1.3857018799677918,1.9045642051624456
1.3220511214145834,1.9331055982107512
1.2366914348124274,1.982046074483505
0.6579382715922788,2.0174043367148933
0.6204713417448234,2.093379212666118
0.5627923658582034,2.093379212666118
0.4805963728397632,2.093379212666118
0.47319120890746064,2.093379212666118
0.4400816516770004,2.093379212666118
0.4400816516770004,2.1453736046848695
0.4400816516770004,2.1453736046848695
0.4400816516770004,2.1453736046848695
0.42377897921023666,2.1453736046848695
0.42377897921023666,2.1453736046848695
0.42377897921023666,2.1453736046848695
0.42175839340934385,2.158398975456313
0.4089178323914642,2.158398975456313
0.3933322690752205,2.158398975456313
0.3516282619860862,2.1761345101826413
0.32602778493157886,2.158398975456313
0.32602778493157886,2.158398975456313
0.32602778493157886,2.158398975456313
0.32602778493157886,2.158398975456313
0.32602778493157886,2.2079516087446343
0.32602778493157886,2.2046583668478736
0.32602778493157886,2.2046583668478736
0.32602778493157886,2.136388238887833
0.3839838740199428,2.105909917723964
0.5335298250363755,2.105909917723964
0.46326025425686645,2.105909917723964
0.487346116175609,2.105909917723964
0.537261451302111,2.105909917723964
0.33337776684745946,2.105909917723964
0.33337776684745946,2.0573976106636973
0.33337776684745946,2.0573976106636973
0.33337776684745946,2.115549709243012
0.33337776684745946,2.1392262766478995
0.31689175405207987,2.157516923250725
0.30275681502912605,2.1902845993031876
0.30275681502912605,2.2046954181034555
0.30275681502912605,2.2046954181034555
0.3153541921179307,2.2046954181034555
0.3153541921179307,2.2046954181034555
0.33726110625321637,2.2432408846551946
0.38298916501359337,2.313140997488908
0.38298916501359337,2.2089848864329835
0.3504598547641773,2.2432408846551946
0.3504598547641773,2.2046954181034555
0.4560251699692947,2.2432408846551946
0.5059044753487577,2.0186161880958
0.5353708122922244,1.8207137179393282
0.6329794240873293,1.8105017684056905
0.6329794240873293,1.7951496384718402
0.6329794240873293,1.7822215410691409
0.6329794240873293,1.7822215410691409
0.820513542902768,1.7822215410691409
0.9658351637179563,1.7822215410691409
1.1027238361685978,1.7822215410691409
1.2696006534486888,1.781231340258775
1.3695550369167637,1.7802498481427118
1.4816834564501196,1.7802498481427118
1.4816834564501196,1.7802498481427118
1.4816834564501196,1.7802498481427118
1.4816834564501196,1.7802498481427118
1.4805929925835462,1.6677387209184555
1.2028535673901446,1.6677387209184555
1.0363523271193738,1.6677387209184555
0.9536343329075286,1.6677387209184555
0.9536343329075286,1.6677387209184555
0.9536343329075286,1.7787009829735714
0.9536343329075286,1.7812196630005375
0.9536343329075286,1.7812196630005375
0.9536343329075286,1.7812196630005375
1.2028535673901446,1.7962841591337204
1.3059070718628738,1.8422216712561246
1.482084047824871,1.8422216712561246
1.6174429116160003,1.8422216712561246
1.6637074775562186,1.7812196630005375
1.8511664636467362,1.7812196630005375
1.9463088287095331,1.7336364009605338
1.9689829249438855,1.7302551761667384
1.981701588020317,1.6626950664694815
2.220890313742712,1.6626950664694815
2.254899123041957,1.6626950664694815
2.246802824004427,1.6626950664694815
2.246802824004427,1.6626950664694815
2.254899123041957,1.6626950664694815
2.4628868935453974,1.7302551761667384
2.578139774386677,1.6661573974778339
2.6375277069677745,1.6626950664694815
2.4212978283387128,1.6626950664694815
2.246802824004427,1.6661573974778339
2.246802824004427,1.7888697148981618
2.246802824004427,1.9202527352938341
2.1794211582478806,1.6661573974778339
2.1785271194622835,1.6282591445414625
2.138651768937402,1.6282591445414625
2.0284049446367707,1.6661573974778339
1.7680408845782198,1.6661573974778339
1.6186557133090629,1.676464239296391
1.6186557133090629,1.676464239296391
1.6186557133090629,1.6559953869496387
1.550261780052964,1.6559953869496387
1.550261780052964,1.6559953869496387
1.5119607900433962,1.6559953869496387
1.486404714770548,1.6559953869496387
1.4854329909235748,1.6559953869496387
1.4854329909235748,1.4914414948128698
1.4854329909235748,1.4821718285286556
1.4854329909235748,1.4821718285286556
1.486404714770548,1.4821718285286556
1.5331973337580296,1.4821718285286556
1.550261780052964,1.4821718285286556
1.6260198180916534,1.4362296186227723
1.6508714798791997,1.4362296186227723
1.6508714798791997,1.4362296186227723
1.6508714798791997,1.4362296186227723
1.6562611047639062,1.4362296186227723
1.6562611047639062,1.4362296186227723
1.6562611047639062,1.4362296186227723
1.6562611047639062,1.4362296186227723
1.6682987292956146,1.4362296186227723
1.732332930974112,1.590666315846548
1.732332930974112,1.7446001755421343
1.732332930974112,1.792909537518297
1.732332930974112,1.8006710321870647
2.0837227024674405,1.8006710321870647
2.380342335809804,1.8306572008861888
2.5163352222716684,1.7670156586231816
2.560979840861256,1.8306572008861888
2.7949046772639043,1.8306572008861888
2.7949046772639043,1.765265540345887
2.6968464725924344,1.7448501691222202
2.6968464725924344,1.7180929056084109
2.575144222506585,1.6384671622788491
2.575144222506585,1.6384671622788491
2.386934270478268,1.6384671622788491
2.3560028821027084,1.6384671622788491
1.9737028641090688,1.6384671622788491
1.4689432827581086,1.601469730541282
1.405849342003883,1.601469730541282
1.2574610468112957,1.601469730541282
1.1779458950241963,1.601469730541282
1.1397150102965121,1.7898778115197462
1.0082808017863976,1.7898778115197462
1.0082808017863976,1.7898778115197462
0.9612585460631183,1.7898778115197462
0.95111426763948,1.7898778115197462
0.9258655258098605,1.7898778115197462
0.850636729447289,1.8205542654335847
0.8100971852377808,1.8660299427596598
0.8100971852377808,1.8719390413785952
0.8100971852377808,1.8660299427596598
0.8099174348649819,1.8660299427596598
0.7704712684652445,1.8660299427596598
0.7704712684652445,1.8719390413785952
0.7578535005507241,1.8719390413785952
0.7578535005507241,1.8719390413785952
0.725382327467133,1.8719390413785952
0.725382327467133,1.8719390413785952
0.719815508923855,1.8719390413785952
0.670667808838767,1.9010333059172078
0.6512415554787138,1.9010333059172078
0.6190075974458102,2.0095603292197426
0.6190075974458102,2.0095603292197426
0.6190075974458102,2.0095603292197426
0.6190075974458102,2.0095603292197426
0.6190075974458102,1.9010333059172078
0.6190075974458102,1.9010333059172078
0.6190075974458102,1.8756372967064074
0.6190075974458102,1.8265771960718267
0.8408353982223061,1.8265771960718267
0.8529870092228801,1.8265771960718267
1.0159106687353232,1.8265771960718267
1.0189659554967543,1.7885542684785964
1.191085039453425,1.4763224491937097
1.2378468995431073,1.374101256770893
1.2901074627803795,1.374101256770893
1.3258488741660943,1.374101256770893
1.4022688677202242,1.4763224491937097
1.4115585155793844,1.8265771960718267
1.4130510984724411,2.0832917906832993
1.4157582372239825,2.0832917906832993
1.5353806347558527,1.7861501348318312
1.7213812875925527,1.7861501348318312
1.9374269492359564,1.8077763518957122
1.9654763134512183,1.7861501348318312
2.101702130941569,1.7861501348318312
2.101702130941569,1.7861501348318312
2.252084751332992,1.7861501348318312
2.399173511602103,1.7861501348318312
2.399173511602103,1.7861501348318312
2.399173511602103,1.7861501348318312
2.399173511602103,1.7861501348318312
2.399173511602103,1.699652437483031
2.399173511602103,1.699652437483031
2.399173511602103,1.699652437483031
2.4063394752321656,1.7378754719432619
2.672083729870461,2.145478752239036
2.7200549245457615,1.7524440416762055
2.918849533646059,1.7378754719432619
3.0256448145173067,1.7378754719432619
3.0256448145173067,1.7378754719432619
3.0256448145173067,1.7173600707223158
3.006186073418766,1.7173600707223158
3.006186073418766,1.7173600707223158
3.006186073418766,1.68453951974247
3.006186073418766,1.68453951974247
3.0256448145173067,1.68453951974247
3.0256448145173067,1.68453951974247
3.0336244100107606,1.68453951974247
3.006186073418766,1.7614179501657412
2.9470446781516726,1.7207478628019313
2.8175929464750973,1.7207478628019313
2.9501114097137706,1.94473525408981
2.8175929464750973,1.7889067201512132
2.7087893341850076,1.7614179501657412
2.6189909540001546,1.7614179501657412
2.6189909540001546,1.7207478628019313
2.6189909540001546,1.7207478628019313
2.6089604459685547,1.7207478628019313
2.543866286160806,1.7207478628019313
2.543866286160806,1.6229870997453728
2.543866286160806,1.5962954845058217
2.543866286160806,1.5962954845058217
2.543866286160806,1.5962954845058217
2.543866286160806,1.5962954845058217
2.595589587947483,1.4474838157526293
2.569497896066305,1.4474838157526293
2.3802277802322793,1.4474838157526293
2.3802277802322793,1.4474838157526293
2.3802277802322793,1.4474838157526293
2.510315248872286,1.4474838157526293
2.3806613573834867,1.4474838157526293
2.3802277802322793,1.4031619685552859
2.1912363049174677,1.3933225406177179
2.1912363049174677,1.3933225406177179
2.1912363049174677,1.3933225406177179
2.1912363049174677,1.4031619685552859
2.183510218933987,1.6651040324094444
2.185195274844906,1.8097402575666086
2.185195274844906,1.8132340657458275
2.185195274844906,1.8132340657458275
2.185195274844906,1.8132340657458275
2.1912363049174677,1.7410979208244133
2.3075605266583934,1.7410979208244133
2.5099872452116982,1.9853671467618015
2.805665970982846,1.8843412980421856
2.805665970982846,1.8843412980421856
2.9384187393279304,1.8843412980421856
3.024725138366251,1.8843412980421856
2.9384187393279304,1.8843412980421856
2.9384187393279304,1.8843412980421856
2.9384187393279304,1.8843412980421856
2.9384187393279304,1.9910613966558361
2.9384187393279304,1.9910613966558361
3.024725138366251,1.8843412980421856
3.024725138366251,1.5567580032766501
2.832516322927258,1.4306915535669347
2.529249330431377,1.4306915535669347
2.351687854684805,1.4306915535669347
2.351687854684805,1.4306915535669347
2.351687854684805,1.4306915535669347
2.0825454594875787,1.4306915535669347
2.0825454594875787,1.4306915535669347
2.0825454594875787,1.4306915535669347
2.0825454594875787,1.7734485294593043
2.0749375359699442,1.9922345658814744
1.9471108282094653,1.9922345658814744
2.0825454594875787,1.9922345658814744
2.2468028240046114,2.012445523205471
2.196626744440167,2.054428057904545
1.9471108282094653,1.9332618251506708
1.773067294090623,1.9332618251506708
2.006372459599754,1.9332618251506708
1.9471108282094653,1.9332618251506708
1.6964637769438282,1.8638370105997168
1.6964637769438282,1.8384951772328915
1.6964637769438282,1.811996619015973
1.6964637769438282,1.8139139453310729
1.6964637769438282,1.8384951772328915
1.6964637769438282,1.8384951772328915
1.6964637769438282,1.8384951772328915
1.7398807658187052,1.8638370105997168
1.4679064730771272,1.8762221500959742
1.4679064730771272,1.8762221500959742
1.4679064730771272,1.8762221500959742
1.4272091615551958,1.9002868959649417
1.324283201469025,1.8762221500959742
0.9507347073668959,1.8762221500959742
0.9507347073668959,1.8762221500959742
0.8746972075664607,1.9543145174513257
0.8433412258137731,1.9543145174513257
0.5913034161933678,1.9543145174513257
0.559423959735255,1.9543145174513257
0.47484720547039516,1.9543145174513257
0.3103014944000455,1.9543145174513257
0.3103014944000455,1.9543145174513257
0.3103014944000455,1.9543145174513257
0.29699242628847844,2.0963329153082286
0.29699242628847844,2.0963329153082286
0.29699242628847844,2.0963329153082286
0.29699242628847844,2.0963329153082286
0.29699242628847844,2.0963329153082286
0.3103014944000455,2.0963329153082286
0.3323777500011421,2.0963329153082286
0.3733346603752029,2.055505653822746
0.46047626117159507,2.023001441374451
0.46047626117159507,1.989327344904919
0.49808097899321974,1.989327344904919
0.5298542547281795,1.989327344904919
0.5540988151147686,1.9999561087284503
0.5701215395948238,1.9999561087284503
0.5867460330655603,1.989327344904919
0.5867460330655603,1.989327344904919
0.608709736026849,1.989327344904919
0.5701215395948238,1.989327344904919
0.5458223341742997,1.9999561087284503
0.4368119807853529,1.9999561087284503
0.42501271847354855,1.9999561087284503
0.42501271847354855,1.9696846616700578
0.41919547064884394,1.9696846616700578
0.38456684517733586,1.9696846616700578
0.3420882422589206,2.1017685951331355
0.3420882422589206,2.1017685951331355
0.3420882422589206,2.1017685951331355
0.38456684517733586,2.1017685951331355
0.38456684517733586,2.1017685951331355
0.38456684517733586,2.2387097522515242
0.41919547064884394,2.402255799265999
0.4232422673013309,2.2387097522515242
0.3293157924055594,2.3409461068288766
0.34036461526794204,2.3409461068288766
0.4232422673013309,2.3409461068288766
0.5101741390417118,2.096805273068819
0.5404435022416343,1.8739601538559618
0.7047750579994837,1.8739601538559618
0.7047750579994837,1.8739601538559618
0.7047750579994837,1.8627588377270705
0.7047750579994837,1.796415260245726
0.8757791066183369,1.7584630738939742
0.982077198497136,1.731290621604832
1.2137141843279078,1.731290621604832
1.3946531165264533,1.7584630738939742
1.4067028779962498,1.796415260245726
1.4067028779962498,1.796415260245726
1.4067028779962498,1.796415260245726
1.4067028779962498,1.731290621604832
1.3946531165264533,1.731290621604832
1.344553119522131,1.731290621604832
1.3319183117477031,1.6814397918204804
1.1710136969277576,1.6105998495708207
1.1531506173282817,1.597950890640158
1.1377904172801154,1.597950890640158
1.1377904172801154,1.597950890640158
1.1377904172801154,1.597950890640158
1.1377904172801154,1.6105998495708207
1.1377904172801154,1.7068957905789526
1.1377904172801154,1.7256020269110697
1.1710136969277576,1.7068957905789526
1.4461382904602327,1.597950890640158
1.7865510166191465,1.597950890640158
2.193225914134046,1.7068957905789526
2.2885000308949133,1.7068957905789526
2.356438199341191,1.7230651068322347
2.3667196807659425,1.7230651068322347
2.4981788060748005,1.7230651068322347
2.5746477490750825,1.7230651068322347
2.5746477490750825,1.7230651068322347
2.5746477490750825,1.6923944397699437
2.5746477490750825,1.6923944397699437
2.4981788060748005,1.891549477298135
2.4981788060748005,1.891549477298135
2.4981788060748005,1.891549477298135
2.4981788060748005,1.891549477298135
2.4652169993525277,1.891549477298135
2.364008198012907,1.891549477298135
2.3527546500231704,1.7549626448145075
2.283984646227755,1.7549626448145075
2.283984646227755,1.7549626448145075
2.283984646227755,1.7549626448145075
2.283984646227755,1.7549626448145075
2.2246703802468994,1.7549626448145075
2.1734198705282073,1.7380308526274653
2.137320055949467,1.7380308526274653
2.0174184298484743,1.7380308526274653
1.8512859604323721,1.7380308526274653
1.51894396386653,1.7380308526274653
1.3862408908980173,1.6162666973774957
1.3214274514807811,1.6162666973774957
1.3214274514807811,1.6162666973774957
1.3214274514807811,1.6162666973774957
1.3214274514807811,1.5451548887717517
1.3214274514807811,1.4864584942577632
1.3214274514807811,1.3804950899490944
1.3932428313551481,1.3804950899490944
1.3991312477864937,1.3804950899490944
1.3991312477864937,1.4864584942577632
1.4315673667638313,1.4864584942577632
1.4345875696443429,1.3804950899490944
1.4959422159538536,1.3593000739552465
1.5257970705986976,1.3593000739552465
1.5730629187488814,1.3593000739552465
1.5757690287798396,1.3593000739552465
1.5979824901545658,1.6211166755341289
1.6864239870947442,1.6125669039254724
1.9047421624737417,1.6125669039254724
2.179438947912355,1.6125669039254724
2.467776231647499,1.6125669039254724
2.467776231647499,1.6211166755341289
2.617848665168683,1.7865656697032626
2.617848665168683,1.825381588034414
2.831472260845871,1.8802477229899421
2.831472260845871,1.8802477229899421
2.831472260845871,1.90420239663149
2.831472260845871,1.9925565513070345
2.831472260845871,1.9925565513070345
2.9109417522274006,1.9925565513070345
3.010338058079839,1.9925565513070345
3.010338058079839,1.9925565513070345
3.010338058079839,1.9925565513070345
3.085766723386173,2.0170794969986985
3.1775931799301835,2.1386051951876457
3.116661738088499,2.1386051951876457
3.010338058079839,2.1386051951876457
2.7985329812700654,2.0170794969986985
2.104237123403844,2.0170794969986985
1.809619157900231,2.0170794969986985
1.5538041426089473,2.2267752883871195
1.2884511304088733,2.2267752883871195
1.1066739860913695,2.0127074395612925
0.8935188306232678,2.0127074395612925
0.8114183693824581,1.966852830941184
0.8114183693824581,1.8299950369536615
0.7781163461250958,1.8299950369536615
0.7452725047731278,1.8299950369536615
0.7143962878554582,1.966852830941184
0.6874055839267791,1.966852830941184
0.6616985294572807,1.9992939713987967
0.6252168314186978,1.9992939713987967
0.6252168314186978,1.9992939713987967
0.6252168314186978,1.9992939713987967
0.6252168314186978,2.0687664035268605
0.6252168314186978,1.9992939713987967
0.6252168314186978,2.0029734619337454
0.6252168314186978,1.950486908780188
0.6252168314186978,1.950486908780188
0.7389439822442332,1.950486908780188
0.7389439822442332,1.9992939713987967
0.8737708463781304,2.0901775479945366
0.8972797645268996,1.7840985518683208
0.9607079498247871,1.7840985518683208
0.9912685211745931,1.7840985518683208
1.0388243185209625,1.7840985518683208
1.0468424057200998,1.9657772294268818
1.0666731867089985,1.7619338511219242
1.1050645598552566,1.7619338511219242
1.1050645598552566,1.7619338511219242
1.1192721677784416,1.7619338511219242
1.1908162738743362,1.7619338511219242
1.2204472467982665,1.7619338511219242
1.2832144729020514,1.6046935985817659
1.2870258561467947,1.6046935985817659
1.2870258561467947,1.515513828486697
1.2870258561467947,1.515513828486697
1.3907176891661517,1.515513828486697
1.466960965085705,1.515513828486697
1.5490703710153853,1.6046935985817659
1.5727992532950466,1.754388670472589
1.7003498170707856,1.754388670472589
1.7003498170707856,1.754388670472589
1.9451822419642744,1.754388670472589
1.8653553600057142,1.8780088160162656
2.182953614587896,1.8780088160162656
2.250963458334333,2.0483832803098436
2.348385176457802,2.0483832803098436
2.3793728957903078,2.0483832803098436
2.3793728957903078,2.0533243103030188
2.546482643500118,2.0533243103030188
2.6098277553132854,2.0533243103030188
2.6098277553132854,2.0533243103030188
2.6098277553132854,2.0533243103030188
2.6098277553132854,2.0533243103030188
2.9351527983292405,1.9442926857004361
2.759713717439174,1.9115355306465793
2.556136944748623,1.5417726149286737
2.455545032757696,1.1862368361573559
2.207208620671977,1.1862368361573559
2.207208620671977,1.1862368361573559
2.1091213715869523,1.5417726149286737
2.1091213715869523,1.9115355306465793
2.1091213715869523,1.9442926857004361
2.1091213715869523,1.9442926857004361
2.1091213715869523,1.9442926857004361
2.1091213715869523,1.9913378165770934
2.1091213715869523,2.0717670146117158
2.1292969222174136,2.0717670146117158
2.207208620671977,2.0717670146117158
2.5847132164461684,2.0717670146117158
2.842779024896713,2.057762658012391
2.988672605221625,2.057762658012391
3.0684450052605925,2.0574251598013977
2.842779024896713,2.057762658012391
2.6455085282068964,2.0574251598013977
2.547190223925183,1.9739155404592792
2.547190223925183,1.8364904141427316
2.547190223925183,1.8364904141427316
2.547190223925183,1.8364904141427316
2.547190223925183,1.8364904141427316
2.4524112910969693,1.615150108131701
2.4524112910969693,1.615150108131701
2.4524112910969693,1.615150108131701
2.4524112910969693,1.615150108131701
2.4524112910969693,1.8364904141427316
2.419739541753217,1.8703116955847434
2.371130273066453,1.8703116955847434
2.058492939328649,1.8703116955847434
1.9699523713430434,1.8703116955847434
1.9263938959060039,1.8703116955847434
1.9005939908278664,1.8703116955847434
1.9005939908278664,2.0666737460995948
1.9005939908278664,2.0666737460995948
1.9005939908278664,2.0666737460995948
1.9005939908278664,1.9604105899733653
1.9005939908278664,1.8703116955847434
1.95434836991341,1.9604105899733653
1.95434836991341,1.9839963217921084
1.95434836991341,2.0270751378323513
2.25092125063902,2.0270751378323513
2.9783451973255057,1.9839963217921084
3.4402552662007704,1.9839963217921084
3.6731748351264493,1.702270109433216
3.5991778133767287,1.702270109433216
3.0292179359353124,1.6617207036218808
2.852537598796753,1.5622600508066604
2.852537598796753,1.5622600508066604
2.852537598796753,1.5622600508066604
3.035217558478469,1.5622600508066604
2.7436151444122303,1.5622600508066604
2.675795487840723,1.3925437924583488
2.5185337496993965,1.3925437924583488
2.5185337496993965,1.5622600508066604
2.5185337496993965,1.5857058089539307
2.5185337496993965,1.5857058089539307
2.5185337496993965,1.7067522088787936
2.5185337496993965,1.7694763343885704
2.5185337496993965,2.2113006876506622
2.5185337496993965,2.2113006876506622
2.5185337496993965,2.2113006876506622
2.5628119305748314,2.4867049586042738
2.8124909589787466,2.5367068870857037
2.9705161822812736,2.5742805132007978
3.3110835133643555,2.682860750071625
3.3110835133643555,2.5794895257717267
3.4395171351143756,2.5794895257717267
3.478544031602382,2.5794895257717267
3.431649943360939,2.5794895257717267
3.3110835133643555,2.5794895257717267
2.7904361168379097,2.5794895257717267
2.7904361168379097,2.5794895257717267
2.400007480720753,2.621819175873436
2.0423454180894787,2.5794895257717267
1.9089333232357202,2.5562772134336154
1.9069137751070595,2.276209188236002
1.9069137751070595,1.9310672404532223
1.9069137751070595,1.8891131873379963
1.9069137751070595,1.7816205011998256
1.9069137751070595,1.7816205011998256
1.9069137751070595,1.7816205011998256
1.9089333232357202,1.7816205011998256
1.5078090487225178,1.7790985238066928
1.5078090487225178,1.7790985238066928
1.5078090487225178,1.7790985238066928
1.4492075321468958,1.7790985238066928
1.2557691807221505,1.7790985238066928
1.1249537756746062,1.7790985238066928
0.7756959144933131,1.7790985238066928
0.7472150177172533,1.782741864681895
0.7081303704336529,1.782741864681895
0.6519949858181394,1.782741864681895
0.6242023599407304,1.9532029718822765
0.4054137225953521,2.127277563705872
0.3963354194261752,2.0356674676668085
0.3963354194261752,2.0356674676668085
0.3963354194261752,2.0356674676668085
0.3649296750877088,2.0356674676668085
0.34456646070902025,2.1069679289033663
0.33972879493768837,2.1069679289033663
0.3322856990983022,2.1069679289033663
0.3322856990983022,2.1069679289033663
0.3322856990983022,2.1069679289033663
0.3322856990983022,2.1069679289033663
0.3322856990983022,2.0831947429719757
0.3322856990983022,2.0831947429719757
0.3322856990983022,2.0429302526083375
0.3322856990983022,1.8583345908391251
0.5013285798954569,1.8583345908391251
0.57596622628338,1.8583345908391251
0.5617237360831958,1.8583345908391251
0.537079058735402,1.8583345908391251
0.47726151396723265,1.8583345908391251
0.2920048672886914,1.8583345908391251
0.2920048672886914,1.8583345908391251
0.2920048672886914,2.159091516624145
0.2920048672886914,2.1709145484484873
0.2920048672886914,2.1804206029007647
0.2920048672886914,2.1977397021012406
0.2920048672886914,2.2071430231256346
0.2920048672886914,2.249569114109152
0.3009200791910381,2.249569114109152
0.31345000601518974,2.249569114109152
0.3363616060493961,2.261721448936543
0.3432360217467611,2.3013637294874902
0.3432360217467611,2.261721448936543
0.3432360217467611,2.261721448936543
0.3432360217467611,2.249569114109152
0.4119279912188283,2.3013637294874902
0.43867808565562183,2.093882109569035
0.4817419965825659,1.8459628572349052
0.4817419965825659,1.8425639073737872
0.4817419965825659,1.784012795318814
0.4817419965825659,1.766915609021966
0.4817419965825659,1.766915609021966
0.7468741186950327,1.766915609021966
0.8764175185135922,1.766915609021966
1.1064358430811405,1.784012795318814
1.2379239076044297,1.784012795318814
1.3154643743990841,1.784012795318814
1.3154643743990841,1.766915609021966
1.3154643743990841,1.766915609021966
1.3154643743990841,1.766915609021966
1.3154643743990841,1.766915609021966
1.3154643743990841,1.7378312660893636
1.189857589517017,1.6125249022410688
1.1058958378819188,1.604564793865284
0.9875589773180774,1.604564793865284
0.9875589773180774,1.604564793865284
0.9875589773180774,1.604564793865284
0.9875589773180774,1.6125249022410688
0.9875589773180774,1.7778686885116388
0.9875589773180774,1.7318647721646867
1.1412001444391147,1.7318647721646867
1.36422117364614,1.7939913414710558
1.3814758125753712,1.7939913414710558
1.5290336491146954,1.7939913414710558
1.8270834690860327,1.7939913414710558
1.9441902666846442,1.7939913414710558
1.9441902666846442,1.7939913414710558
1.9713805974421375,1.7939913414710558
1.9957024052400367,1.7939913414710558
2.140300704285033,1.8293834946935064
2.140300704285033,1.8293834946935064
1.9713805974421375,1.70090775039174
1.9441902666846442,1.7007211970477805
1.8228539835377593,1.7007211970477805
1.818957793247655,1.7007211970477805
1.8067037241607442,1.7007211970477805
1.8067037241607442,1.7007211970477805
1.818957793247655,1.5990834064511255
1.818957793247655,1.5990834064511255
1.818957793247655,1.5990834064511255
1.818957793247655,1.5990834064511255
1.818957793247655,1.5990834064511255
1.869325239662896,1.5990834064511255
1.818957793247655,1.5990834064511255
1.6887497149319666,1.5990834064511255
1.869325239662896,1.5990834064511255
2.05710499975031,1.5990834064511255
2.0843264611544807,1.618176102849591
2.05710499975031,1.823890880956326
1.7565225027820175,1.618176102849591
1.6887497149319666,1.618176102849591
1.6348928260362205,1.618176102849591
1.6348928260362205,1.8584240905916887
1.6215517652281863,1.8584240905916887
1.6215517652281863,1.618176102849591
1.562030202627091,1.618176102849591
1.4629753020701226,1.618176102849591
1.428169452283704,1.618176102849591
1.4031031390247481,1.636445508488239
1.3614484107028044,1.636445508488239
1.3614484107028044,1.636445508488239
1.4031031390247481,1.5948265772721437
1.4031031390247481,1.5948265772721437
1.4031031390247481,1.5948265772721437
1.3989752990393445,1.634777723001936
1.3989752990393445,1.634777723001936
1.3989752990393445,1.5948265772721437
1.367321512457807,1.5948265772721437
1.3989752990393445,1.5948265772721437
1.4113448282789662,1.5948265772721437
1.4600235012294616,1.634777723001936
1.4679536858152449,1.634777723001936
1.4679536858152449,1.634777723001936
1.6189901128708175,1.3340181848244794
1.6811289307365824,1.3340181848244794
1.76253121422557,1.3340181848244794
1.785853363694819,1.450809513120307
1.7861024424388106,1.6393883129938003
2.0863587782743527,1.9077689857468285
2.2811523852433866,1.9077689857468285
2.372783848697751,1.9077689857468285
2.8060340254524907,1.9077689857468285
2.9459916950670624,1.8987478906736408
2.8596947730988327,1.9216360742270069
2.525673742921422,1.968584845391595
2.1426655565982466,2.14421148129884
1.9699315538211326,2.11304821699238
1.4549041330355588,2.14421148129884
1.319078039834994,2.11304821699238
1.319078039834994,2.11304821699238
1.319078039834994,2.11304821699238
1.319078039834994,1.7807173217105396
1.319078039834994,1.7129207249158753
1.319078039834994,1.7129207249158753
1.319078039834994,1.7129207249158753
1.2417178319190547,1.7129207249158753
1.2342613574260797,1.7129207249158753
1.2342613574260797,1.6985957846625535
1.0763388716013784,1.5460143025614164
1.0722451164384983,1.5460143025614164
1.0722451164384983,1.5460143025614164
1.0722451164384983,1.5460143025614164
1.0296841723118964,1.6985957846625535
0.8658345030188733,1.6985957846625535
0.8597884058715165,1.6985957846625535
0.8597884058715165,1.6899088253125647
0.8597884058715165,1.6365631055147147
0.8597884058715165,1.6365631055147147
0.8597884058715165,1.6365631055147147
0.8716220444335648,1.6899088253125647
0.8598902647541313,1.6899088253125647
0.8598902647541313,1.6365631055147147
0.8598902647541313,1.6365631055147147
0.9251755868201693,1.6365631055147147
0.9251755868201693,1.6365631055147147
0.9375974190913279,1.7000757457372346
1.0104996618318625,1.7000757457372346
1.0104996618318625,1.7000757457372346
1.0104996618318625,1.7000757457372346
1.16765887191078,1.7000757457372346
1.1840356812263226,1.7000757457372346
1.4641328357737458,1.7000757457372346
1.5543683372446857,1.7696564604076344
1.8978323160036483,1.8017085209777661
2.018864108455604,1.8017085209777661
2.1754810028172797,1.8017085209777661
2.4891646076813463,2.1259058560310713
2.517820010879123,2.1280698546146963
2.517820010879123,2.1280698546146963
2.3890230439445888,2.1280698546146963
2.218657731376193,2.1259058560310713
2.0416032665175345,2.1259058560310713
1.9050002351434112,2.1259058560310713
1.4838263462243932,2.0530079318100647
1.2434934006582028,2.0530079318100647
1.013577276199531,1.9054975996957892
0.9112337168903993,1.9054975996957892
0.9112337168903993,1.9054975996957892
0.9112337168903993,1.9054975996957892
0.9112337168903993,2.0530079318100647
0.9112337168903993,2.0530079318100647
0.9112337168903993,2.095763916934646
0.9112337168903993,2.095763916934646
0.9112337168903993,2.095763916934646
0.9720504522710679,2.095763916934646
1.0558727531050236,2.0836882362453473
1.0690068195721452,2.1243778263301616
1.3638601875431409,2.1893081363773867
2.0208028594155696,2.1243778263301616
2.166097414009928,2.1243778263301616
2.497825864445736,2.1243778263301616
2.72827682691086,2.1243778263301616
3.1318555383308797,2.1243778263301616
3.1318555383308797,2.1098300370859207
3.1318555383308797,2.0836882362453473
3.2466494805436596,2.1098300370859207
2.890150190038193,2.1243778263301616
2.4763795624334057,2.1098300370859207
2.0059284429312356,1.85469337564627
1.6553471856859503,1.7641860988400684
1.623548040096207,1.6884084935684966
1.623548040096207,1.6884084935684966
1.623548040096207,1.6884084935684966
1.3790967560995107,1.6884084935684966
1.3447530050828593,1.6884084935684966
1.2939978220107962,1.4980511143991282
1.205280868918033,1.4980511143991282
1.205280868918033,1.4980511143991282
1.205280868918033,1.4980511143991282
1.205280868918033,1.764293061876767
1.205280868918033,1.7493555628344375
1.205280868918033,1.7493555628344375
1.205280868918033,1.7493555628344375
1.205280868918033,1.7493555628344375
1.3138425046392206,1.7493555628344375
1.396489458225891,1.6456519802442378
1.4023659622043918,1.6456519802442378
1.4769507945060163,1.8420869270767202
1.5288178056186121,1.8420869270767202
1.5288178056186121,1.8420869270767202
1.6135729303443351,1.8420869270767202
1.8659401463075749,1.884540711804213
2.1305165298483546,2.0025347343269413
2.6307753080166765,1.9422702595943675
2.7907660801336727,1.9422702595943675
2.934879659561829,1.9422702595943675
2.899189023440942,2.0025347343269413
2.168744082327782,2.144274240827922
2.1358780530941797,2.144274240827922
2.1358780530941797,2.144274240827922
2.1358780530941797,2.144274240827922
2.1358780530941797,2.144274240827922
2.1358780530941797,2.144274240827922
1.94364794168314,2.144274240827922
1.94364794168314,2.319517207548266
1.94364794168314,2.319517207548266
1.94364794168314,2.270762993936825
1.94364794168314,2.270762993936825
2.154140110901784,2.270762993936825
2.343564178099598,2.319517207548266
2.973145470271333,2.61102981778285
2.973145470271333,2.4572507421054355
2.973145470271333,2.319517207548266
3.2902385457620413,2.3234868529163646
3.5782385641615404,2.3234868529163646
3.4128647474841283,2.3234868529163646
3.286614573597732,2.3234868529163646
3.286614573597732,2.4572507421054355
3.286614573597732,2.4572507421054355
3.1217794248567876,2.3234868529163646
3.1217794248567876,2.2909990002371514
3.1217794248567876,2.2876818941730686
3.1217794248567876,2.2876818941730686
3.1217794248567876,2.2876818941730686
3.0509124538863883,2.2876818941730686
2.9081065484635005,2.0576354044590404
2.8988688331963703,1.8817481244959995
2.3550330174583136,1.8817481244959995
2.2794922062189413,1.8817481244959995
1.964095226275328,1.8817481244959995
1.782382561911766,1.8817481244959995
1.562486769565433,1.8817481244959995
1.562486769565433,1.8581525302034276
1.562486769565433,1.7405147018267035
1.562486769565433,1.7405147018267035
1.562486769565433,1.7405147018267035
1.562486769565433,1.7405147018267035
1.562486769565433,1.7405147018267035
1.6859579740750579,1.7405147018267035
1.6690041951210055,1.7405147018267035
1.6690041951210055,1.7405147018267035
1.6722813942548564,1.7405147018267035
1.6859579740750579,1.749992631634013
1.6884750552111742,1.8907377831288739
1.6884750552111742,1.8907377831288739
1.6046385569546193,1.8681235402615137
1.5424125838745035,1.8620814123675322
1.4907986507756135,1.8620814123675322
1.1676571599528838,1.8907377831288739
0.7740128353595109,1.8907377831288739
0.7697852474606878,1.8907377831288739
0.7697852474606878,1.8907377831288739
0.7697852474606878,1.8907377831288739
0.7697852474606878,2.065590889086548
0.7697852474606878,2.319438184688623
0.7381563084590265,2.3176215084284735
0.5548786808614634,2.271978087580702
0.5548786808614634,2.3176215084284735
0.5548786808614634,2.3176215084284735
0.666554861616143,2.27415724915686
0.8055663733121863,2.1142701253560543
1.1435715590397253,2.104747419750973
1.1435715590397253,2.104747419750973
1.1435715590397253,2.104747419750973
1.1435715590397253,2.104747419750973
1.1435715590397253,2.104747419750973
1.7848776579715766,2.104747419750973
2.009523043798253,2.0207059261799567
2.3839867197518205,2.0207059261799567
1.8701893752334966,2.0207059261799567
1.7848776579715766,1.902074584453595
1.8009896518234993,1.902074584453595
1.8009896518234993,1.902074584453595
1.8009896518234993,1.902074584453595
1.8009896518234993,1.902074584453595
1.8009896518234993,1.902074584453595
1.8009896518234993,1.8094115362814598
1.8009896518234993,1.7521518808578709
1.8009896518234993,1.7521518808578709
1.8009896518234993,1.8094115362814598
1.943174868394043,1.8094115362814598
2.0752333193240804,1.8094115362814598
2.193196853593314,1.739747484447024
2.253955836898856,1.5999975718532606
2.253955836898856,1.5999975718532606
2.4350079470994817,1.5999975718532606
2.249348197735851,1.5999975718532606
2.249348197735851,1.5999975718532606
2.249348197735851,1.5999975718532606
2.249348197735851,1.5999975718532606
2.249348197735851,1.5999975718532606
2.249348197735851,1.6053296574802467
2.249348197735851,1.8671336247538397
2.4086576469121024,1.9476457892945256
2.224870187638459,1.9476457892945256
1.9855547295689342,1.8671336247538397
1.9855547295689342,1.6053296574802467
2.2576298117642835,1.6053296574802467
1.9821094356133218,1.6053296574802467
1.9819752942822066,1.8671336247538397
1.8478583781758144,1.5390074298519352
1.8086432299299797,1.4416903786628412
1.7723532421869865,1.4416903786628412
1.7723532421869865,1.4416903786628412
1.7723532421869865,1.4416903786628412
1.7723532421869865,1.4416903786628412
1.7723532421869865,1.4416903786628412
1.7723532421869865,2.1171164343614683
1.7723532421869865,2.1171164343614683
1.7723532421869865,2.1171164343614683
2.003256357988802,2.1530384130464038
2.177876562761896,2.2101545183667217
2.240220715986956,2.2101545183667217
2.5906207206147633,2.2101545183667217
2.674468042518736,2.2101545183667217
2.674468042518736,2.2101545183667217
2.674468042518736,2.1530384130464038
2.685901029937513,1.8508113784102211
2.674468042518736,1.6441690071002144
2.6327948648589805,1.6441690071002144
2.6327948648589805,1.6441690071002144
2.6327948648589805,1.6441690071002144
2.423351576567333,1.6441690071002144
2.4768221145807496,1.7769538120513146
2.4768221145807496,1.8508113784102211
2.4768221145807496,1.8508113784102211
2.4768221145807496,1.8508113784102211
2.4768221145807496,1.7769538120513146
2.4768221145807496,1.7769538120513146
2.6168274864473577,1.7769538120513146
2.6168274864473577,2.0346386543895343
2.5817158242058484,2.0346386543895343
2.5062026825293073,1.9780441236952975
2.5817158242058484,1.5170983163875436
2.5817158242058484,1.5170983163875436
2.1823363105250873,1.5170983163875436
2.1497929599810237,1.5170983163875436
2.015264934131534,1.5170983163875436
1.8343737047281479,1.5170983163875436
1.4608770160357059,1.7118227981421215
1.4436240249297831,1.7226813033511015
1.4436240249297831,1.7118227981421215
1.4436240249297831,1.7118227981421215
1.4284866721415796,1.7118227981421215
1.4064746287171541,1.7118227981421215
1.401435397214112,1.7118227981421215
1.401435397214112,1.609697011596153
1.4356205892669232,1.609697011596153
1.401435397214112,1.609697011596153
1.3644721218651013,1.609697011596153
1.3644721218651013,1.609697011596153
1.4284866721415796,1.609697011596153
1.3644721218651013,1.609697011596153
1.3644721218651013,1.4350056780446117
1.3644721218651013,1.4350056780446117
1.4356205892669232,1.4350056780446117
1.438911985295925,1.6669066135871113
1.438911985295925,1.6669066135871113
1.4555849786324337,1.4350056780446117
1.4964593410501836,1.4350056780446117
1.4964593410501836,1.4350056780446117
1.6186555698323237,1.4350056780446117
1.7617483143258466,1.6894149781450432
1.793231622760182,1.6894149781450432
1.809509581650415,1.7465011235932364
1.809509581650415,1.8492839082091215
2.0811063998962602,1.8492839082091215
2.0811063998962602,2.113319714760236
2.136517167201126,2.1150709006555872
2.225566324482618,2.1150709006555872
2.397990542078669,2.362116193592828
2.7918837381292674,2.438743420792111
2.7918837381292674,2.334667600973532
2.9061183620080024,2.1801221450345984
2.963053885763156,2.196984394798112
3.1619418505805097,2.2330751651806082
3.243839791854959,2.2330751651806082
3.1171397003007364,2.1801221450345984
2.7918837381292674,1.9719552481004974
2.291489766577441,1.6440831054814733
2.151860606812205,1.6440831054814733
2.151860606812205,1.6440831054814733
2.0951159266235795,1.6440831054814733
2.0951159266235795,1.6440831054814733
2.0951159266235795,1.6440831054814733
2.0951159266235795,1.6440831054814733
2.0951159266235795,1.6440831054814733
2.0951159266235795,1.9719552481004974
2.0951159266235795,2.120961703645399
2.0951159266235795,2.120961703645399
2.4413672592609217,2.120961703645399
2.5222426723303752,2.120961703645399
2.5762534204928826,2.1153543416581724
2.6159079770962514,2.1153543416581724
2.6594464122677737,2.1153543416581724
2.6594464122677737,2.0384541164043064
2.6159079770962514,1.9441965262965524
2.465807897658866,1.5868653225407092
2.465807897658866,1.5868653225407092
2.465807897658866,1.5868653225407092
2.465807897658866,1.9441965262965524
2.5732576047637696,2.0384541164043064
2.5732576047637696,2.0384541164043064
2.5732576047637696,2.0384541164043064
2.5732576047637696,1.9672799304360393
2.5732576047637696,1.9672799304360393
2.5732576047637696,1.9672799304360393
2.584617190643202,2.0712318187030787
3.0203410857345294,2.2835367330226677
3.0203410857345294,2.2256199523333815
3.0203410857345294,2.2256199523333815
3.465056454649483,2.2256199523333815
3.312586021488615,2.2256199523333815
3.209057523413138,2.2256199523333815
3.209057523413138,2.244673787281561
3.209057523413138,2.292211422046622
3.209057523413138,2.414747444027283
3.312586021488615,2.414747444027283
3.3871244436826737,2.414747444027283
3.3871244436826737,2.555193354955233
3.3871244436826737,2.555193354955233
3.3871244436826737,2.555193354955233
3.3871244436826737,2.5168632061233307
3.3871244436826737,2.455313002580968
3.705665151027489,2.455313002580968
3.791033221550123,2.455313002580968
3.4159378775534,2.3939871097050784
3.3479240985690506,2.3600750463946576
3.3479240985690506,2.3600750463946576
3.4159378775534,2.3600750463946576
3.4159378775534,2.3600750463946576
3.4159378775534,2.3495135148077426
3.26170088407567,2.263647218399517
3.209028818621288,2.1599202122550993
3.209028818621288,2.1599202122550993
3.209028818621288,2.1599202122550993
3.209028818621288,2.125845502847508
2.8964031301811812,2.125845502847508
2.8964031301811812,2.125845502847508
2.8964031301811812,2.125845502847508
2.8964031301811812,2.125845502847508
2.8964031301811812,1.902725789393493
2.8964031301811812,1.967308303718621
3.032420766727125,2.125845502847508
3.120861977804098,1.997978368386288
2.932463021241726,1.967308303718621
2.932463021241726,1.967308303718621
2.9315865981538543,1.967308303718621
2.932463021241726,1.967308303718621
2.9315865981538543,1.967308303718621
2.9315865981538543,1.967308303718621
2.9315865981538543,1.967308303718621
2.9315865981538543,1.9771347078059667
2.9315865981538543,1.9771347078059667
2.9315865981538543,1.9771347078059667
2.731140712104021,1.986340121018507
2.731140712104021,2.0624126178745095
2.731140712104021,2.0624126178745095
2.47307362189137,2.0624126178745095
2.4070841674103,1.986340121018507
2.3561699082793486,1.8013060883415422
2.3561699082793486,1.7626512615866086
2.3561699082793486,1.6314876612891094
2.3561699082793486,1.6314876612891094
2.3561699082793486,1.6314876612891094
2.3561699082793486,1.6314876612891094
2.7447439456099487,1.6314876612891094
2.7447439456099487,1.6314876612891094
2.7447439456099487,1.6314876612891094
3.0212833734420514,1.6314876612891094
3.0212833734420514,1.6314876612891094
3.3359205050614897,1.6779833153833363
3.050701833070318,1.9164280829298193
2.3962382062174723,1.9260007062156874
1.852011611164818,1.9260007062156874
1.482218935785248,1.9279606036151966
1.482218935785248,1.9279606036151966
1.482218935785248,1.9279606036151966
1.482218935785248,1.9279606036151966
1.482218935785248,1.9279606036151966
1.482218935785248,1.9734945179137002
1.482218935785248,2.0215991015721935
1.482218935785248,2.0215991015721935
1.482218935785248,2.0215991015721935
1.7485690349917649,2.0215991015721935
1.9438436203445943,2.3114859031166755
2.1041921121592884,2.5124966233253496
2.3633286587941273,2.5124966233253496
2.654361384758193,2.3600750463949094
2.9125718851425786,2.3600750463949094
2.6647913761198434,2.5124966233253496
3.1114087639726895,2.732955003710944
3.1114087639726895,2.732955003710944
3.1114087639726895,2.5124966233253496
3.3788113677992255,2.3600750463949094
3.3788113677992255,2.3390267760574863
3.3788113677992255,1.5550125264267904
2.614424934985456,1.5550125264267904
2.1175173513752634,1.5550125264267904
1.8848661855843558,1.5550125264267904
1.8848661855843558,1.5550125264267904
1.8848661855843558,1.5550125264267904
1.9043697800416026,1.5550125264267904
1.9043697800416026,1.5550125264267904
1.9043697800416026,1.7213109899072554
1.9043697800416026,1.8141714967168054
1.9043697800416026,1.8828616009606631
1.9043697800416026,2.1457218184409386
1.9043697800416026,2.1457218184409386
1.9761891036990074,2.177630912887835
1.9799085754240902,2.269602402703923
2.031683212819607,2.285455866435017
1.9368087459917027,2.256664863822302
1.8737119188842497,2.256664863822302
1.684300957222774,2.177630912887835
1.6114330789264124,2.177630912887835
1.6114330789264124,1.986772468433845
1.6114330789264124,1.8216762085571656
1.6114330789264124,1.7825334225122225
1.6114330789264124,1.7825334225122225
1.6114330789264124,1.7825334225122225
1.684300957222774,1.7825334225122225
1.4034760366563475,1.7825334225122225
1.4034760366563475,1.7825334225122225
1.4034760366563475,1.7825334225122225
1.3272352560202494,1.7825334225122225
0.9880131428932337,1.8677308496303207
0.8372115115996787,1.8885051409553661
0.8372115115996787,1.8885051409553661
0.8372115115996787,1.8885051409553661
0.8372115115996787,1.8677308496303207
0.8372115115996787,1.8677308496303207
0.7477932384610285,1.8677308496303207
0.6937570283213386,2.039757160650782
0.6937570283213386,1.9342480652429639
0.6937570283213386,1.909267898861756
0.6937570283213386,1.909267898861756
0.7361174799920076,1.909267898861756
0.7361174799920076,1.9342480652429639
0.6937570283213386,1.9342480652429639
0.5759605909691221,1.9342480652429639
0.5759605909691221,1.9342480652429639
0.5759605909691221,1.9342480652429639
0.6008844333277769,1.9342480652429639
0.6008844333277769,1.9342480652429639
0.6008844333277769,2.0515893933288547
0.6008844333277769,2.0247354228770558
0.6008844333277769,1.8659152868364066
0.6008844333277769,1.8537462373052258
0.6630142467035469,1.8537462373052258
0.6693294625594228,1.8537462373052258
0.6630142467035469,1.8659152868364066
0.6100027288177351,1.8907137324895376
0.636922083538934,1.8907137324895376
0.636922083538934,1.8907137324895376
0.636922083538934,1.8907137324895376
0.636922083538934,1.8907137324895376
0.636922083538934,2.1421031268210955
0.636922083538934,2.1421031268210955
0.636922083538934,2.2127212963822256
0.636922083538934,2.2127212963822256
0.7330735182611395,2.2127212963822256
0.7539304734763423,2.4721037991945063
0.886028463434915,2.479756443929929
0.9400570025162525,2.6186082909608843
1.0516869221348992,2.5136291355504037
1.3528499810315666,2.479756443929929
1.2761601921746955,2.4721037991945063
1.1685482269099146,2.4721037991945063
1.1606870670707425,2.4721037991945063
1.1317183306153955,2.4721037991945063
1.1317183306153955,2.4721037991945063
1.1317183306153955,2.505040841738208
1.0075272266312298,2.505040841738208
0.7837123148624061,2.20018479106778
0.7632616921342525,2.074750797507525
0.6691045701387413,2.0395798906790263
0.6691045701387413,2.074750797507525
0.6691045701387413,2.0395798906790263
0.7632616921342525,1.908705814595082
0.7632616921342525,1.8750043217121097
0.7632616921342525,1.8750043217121097
0.7632616921342525,1.8750043217121097
0.7632616921342525,1.8750043217121097
0.86309641045393,1.8750043217121097
1.032235029968209,1.8750043217121097
1.2677374748774028,1.8750043217121097
1.4060103301765852,1.8132033262813616
1.6384344688293493,1.77469926274687
1.922579296962487,1.77469926274687
2.2032635201624484,1.77469926274687
2.264674404377061,1.8381921315730103
2.321114755265449,1.8381921315730103
2.5807442553857562,1.8381921315730103
2.8890189214290394,1.8381921315730103
2.906212531170447,1.8381921315730103
2.9068907308562135,1.8381921315730103
2.9068907308562135,1.8381921315730103
3.054174142869126,1.9316594315509956
3.088525683916656,1.9429846302595362
3.088525683916656,1.9429846302595362
3.088525683916656,1.9429846302595362
3.088525683916656,1.9429846302595362
3.088525683916656,1.9831310594519547
3.0995000450675754,2.071365720731814
3.2766270723639734,2.071365720731814
3.2766270723639734,2.071365720731814
3.2766270723639734,2.147289712900508
3.4891161050814694,2.147289712900508
3.5237902283798177,2.233075165180608
3.5237902283798177,2.233075165180608
3.4891161050814694,2.233075165180608
3.4891161050814694,2.3244665618093587
3.4891161050814694,2.3244665618093587
3.2634904047139535,2.3244665618093587
3.2220169549667816,2.233075165180608
3.2220169549667816,2.2207630447359423
2.9081226353389917,2.2207630447359423
2.9081226353389917,2.2207630447359423
2.9081226353389917,2.2207630447359423
2.9081226353389917,2.199137886587077
3.2220169549667816,2.199137886587077
3.2652655476170818,2.199137886587077
3.2220169549667816,2.199137886587077
2.9081226353389917,2.199137886587077
2.9081226353389917,2.199137886587077
2.5707048827692183,2.2158847841049187
2.565789155725841,2.2158847841049187
2.4897362091130613,2.1216992260370193
2.4897362091130613,2.114889662816991
2.4897362091130613,2.114889662816991
2.4897362091130613,2.042870393822504
2.4897362091130613,2.042870393822504
2.4897362091130613,2.041241452319046
2.565789155725841,2.041241452319046
2.7976328245920854,2.041241452319046
2.7976328245920854,2.041241452319046
2.8388101156768424,2.041241452319046
2.8561168461550412,2.038962014991518
2.876115504524434,2.038962014991518
2.8833807924416517,2.038962014991518
2.876115504524434,2.038962014991518
2.7591022535864167,2.038962014991518
2.557511258594248,2.038962014991518
2.5465742189131313,2.052777588592446
2.504370288181756,1.9570257441538739
2.504370288181756,1.9009938232595267
2.3966257522679575,1.835796197832989
2.3966257522679575,1.835796197832989
2.3966257522679575,1.9009938232595267
2.3966257522679575,1.9570257441538739
2.3966257522679575,1.5483423188615169
2.3966257522679575,1.5483423188615169
2.3966257522679575,1.5483423188615169
2.420275630138089,1.5483423188615169
2.420275630138089,1.5483423188615169
2.446108209843094,1.5483423188615169
2.6212623124667718,1.6502810221847168
2.6560907568336547,1.7680733362887766
2.6560907568336547,1.7680733362887766
2.6560907568336547,1.7680733362887766
2.6560907568336547,1.7680733362887766
2.6894355543138193,1.7680733362887766
2.712924420083047,1.9920379949609268
2.7731228913905213,2.008234634627021
2.7363699552604386,2.008234634627021
2.7363699552604386,2.008234634627021
2.8520994926275365,2.008234634627021
2.9677185220223206,2.0709895098060436
3.086132340006156,2.1429962660361115
3.165995121772267,2.198742054698575
3.2381510627418506,2.2025984091869706
2.9677185220223206,2.2025984091869706
2.5942004265440506,2.198742054698575
2.5942004265440506,2.2025984091869706
2.5942004265440506,2.2025984091869706
2.670669203048005,2.2025984091869706
2.670669203048005,2.2025984091869706
2.670669203048005,2.2025984091869706
2.670669203048005,1.7586407885165343
2.670669203048005,1.7586407885165343
2.670669203048005,1.7586407885165343
2.670669203048005,1.7413377445728238
2.60811093461814,1.719379077045793
2.60811093461814,1.719379077045793
2.7662930942395723,1.5627656651319666
2.7169830620787194,1.5627656651319666
2.664638804205843,1.5627656651319666
2.373870569576297,1.5627656651319666
2.2783340410898196,1.5627656651319666
1.9959115784504524,1.5191203966395856
1.9521083654251086,1.4976937837387436
1.896123706679608,1.4976937837387436
1.789334854361096,1.5191203966395856
1.789334854361096,1.7282178935841506
1.789334854361096,1.631111751707437
1.789334854361096,1.631111751707437
1.789334854361096,1.631111751707437
1.789334854361096,1.4507861368688801
1.789334854361096,1.4507861368688801
1.789334854361096,1.4507861368688801
1.7101528344329946,1.631111751707437
1.5766277293635396,1.4171492286275493
1.412410209332186,1.4171492286275493
1.412410209332186,1.4171492286275493
1.412410209332186,1.4171492286275493
1.412410209332186,1.4171492286275493
1.412410209332186,1.7153194514125596
1.412410209332186,1.7153194514125596
1.412410209332186,1.7153194514125596
1.412410209332186,1.7153194514125596
1.412410209332186,1.7153194514125596
1.4513441932116407,1.7153194514125596
1.8284816622935454,1.8238045815887556
2.2323304884918396,1.9704558375084762
2.4784758225705574,1.9704558375084762
2.587269245745432,1.9704558375084762
2.587269245745432,1.9704558375084762
2.714940663550734,2.165339538808722
2.714940663550734,2.165339538808722
2.8631004341188793,2.165339538808722
2.864049597604206,2.165339538808722
2.8710471917565497,2.165339538808722
2.9405958399729433,2.165339538808722
2.9405958399729433,2.165339538808722
2.864049597604206,2.1930247682148853
2.8539018272878227,2.209196006808907
2.8116816152923443,2.1930247682148853
2.8116816152923443,2.1930247682148853
2.645702895351242,2.1930247682148853
2.645702895351242,2.2139464328348244
2.645702895351242,2.21559972349144
2.645702895351242,2.21559972349144
2.645702895351242,2.2139464328348244
2.645702895351242,2.1930247682148853
2.645702895351242,2.1930247682148853
2.645702895351242,2.2139464328348244
2.721473716439574,2.21559972349144
2.9608571162235346,2.26437841819941
3.109639937457269,2.26437841819941
3.388086565113538,2.26437841819941
3.4261234531866234,2.21559972349144
3.486692915035974,2.166291979603646
3.332498998037404,2.0991419648743626
2.947913337452897,2.116281927807274
2.947913337452897,2.166291979603646
2.947913337452897,2.166291979603646
2.947913337452897,2.166291979603646
2.947913337452897,2.166291979603646
2.947913337452897,2.166291979603646
2.947913337452897,2.166291979603646
2.947913337452897,2.166291979603646
2.947913337452897,2.4500423835408585
2.947913337452897,2.5985829997096026
3.1167142503019374,2.606636635788792
3.170494640768318,2.7234746658350906
3.321766580084992,2.7937578094843687
3.321766580084992,2.745094887984241
3.4834044786527865,2.606636635788792
3.4834044786527865,2.4870917900236336
3.6011544899975854,2.3686743873605267
2.7983999247449414,2.2817953059716243
2.360944181998991,2.2423188688754476
2.1243213605682163,2.060065780454427
2.1243213605682163,2.060065780454427
2.1243213605682163,2.060065780454427
2.0748098246175783,2.060065780454427
2.0748098246175783,2.060065780454427
2.0748098246175783,2.2423188688754476
2.0748098246175783,2.1883291403279865
2.0748098246175783,2.1883291403279865
2.0748098246175783,2.1883291403279865
2.0748098246175783,2.307570828123188
2.4582874334274836,2.3447392708370454
2.601701930093362,2.4007903494930507
2.7749785983656765,2.307570828123188
2.7749785983656765,2.307570828123188
2.9176156773242043,2.307570828123188
3.1284131693140234,2.307570828123188
2.80770515036757,2.211201932144683
2.5509283553632303,2.211201932144683
2.4582874334274836,1.9604502965203412
2.4582874334274836,1.9604502965203412
2.5509283553632303,1.9604502965203412
2.5509283553632303,1.7581973881709352
2.5509283553632303,1.7581973881709352
2.5509283553632303,1.7581973881709352
2.5509283553632303,1.7581973881709352
2.5509283553632303,1.7581973881709352
2.5509283553632303,1.7581973881709352
2.236256288283555,1.806857558332811
2.121172108406646,1.809235210895079
1.5803734353666488,1.809235210895079
1.54027764886398,1.806857558332811
1.54027764886398,1.806857558332811
1.54027764886398,1.809235210895079
1.54027764886398,1.809235210895079
1.54027764886398,2.0837312283529066
1.54027764886398,2.0649898872741956
1.54027764886398,1.9326277313964888
1.54027764886398,1.9326277313964888
1.54027764886398,1.9326277313964888
1.6420239963586096,2.263505884592923
1.847959555839353,2.263505884592923
2.063356609084489,2.6394275687030384
2.743258454610157,2.4713767692058344
2.8254356265867604,2.263505884592923
2.867037797624049,2.263505884592923
2.969800671928398,2.4713767692058344
2.8349600272272495,2.4919533636997993
3.0959985806940042,2.6394275687030384
3.1158117811897657,2.4919533636997993
3.1238729109164214,2.4713767692058344
3.1238729109164214,2.4684331554312746
3.1238729109164214,2.432072906603435
3.1238729109164214,2.432072906603435
3.0167493016402935,2.432072906603435
2.8685597177521602,2.4684331554312746
2.7673638111772925,2.4684331554312746
2.7673638111772925,2.3654835872435904
2.2826216265537336,2.2143868233920307
1.6991338719551632,2.2143868233920307
1.5802571430740038,2.158078857624949
1.5298108177549647,2.0874462850988844
1.5298108177549647,2.0874462850988844
1.5298108177549647,1.9843564222291592
1.4011539507523045,1.9826710020014293
1.4011539507523045,1.9021142600756578
1.4011539507523045,1.7820292775458055
1.4011539507523045,1.7820292775458055
1.4011539507523045,1.7820292775458055
1.5802571430740038,1.7820292775458055
1.6824629320269548,1.7820292775458055
1.69986797086497,1.7820292775458055
1.3671960689573053,1.7820292775458055
1.3671960689573053,1.7820292775458055
1.3671960689573053,1.7820292775458055
1.2796246071599693,1.786057644616486
0.9813573592288534,1.9032641848652105
0.8055092817364287,1.9032641848652105
0.7547225850674714,1.9032641848652105
0.7547225850674714,1.9032641848652105
0.6997183620745808,1.9032641848652105
0.6894081106353745,1.9032641848652105
0.4935220414020467,1.9032641848652105
0.4709533541501541,2.1224459781613496
0.4646814996541209,2.0680143555187462
0.4322297003043354,1.9866619926091178
0.4322297003043354,1.9866619926091178
0.4322297003043354,1.9866619926091178
0.3914374685724487,2.0680143555187462
0.37644277263761516,2.0680143555187462
0.37644277263761516,2.0680143555187462
0.37644277263761516,1.9866619926091178
0.37644277263761516,1.9866619926091178
0.37644277263761516,1.9866619926091178
0.37644277263761516,1.9866619926091178
0.3914374685724487,1.9764400554930284
0.4253797298055561,1.9764400554930284
0.4253797298055561,1.9666136192960473
0.5105904702917161,1.9632730408652916
0.6253055475897803,1.9632730408652916
0.689020262991316,1.9642033597263984
0.6255838299416409,1.9666136192960473
0.6253055475897803,1.9666136192960473
0.4032097384039386,1.9666136192960473
0.4017372709790911,1.9666136192960473
0.4017372709790911,1.9666136192960473
0.3953421076433584,2.06649060082421
0.37258368351754273,2.2185744903204547
0.37258368351754273,2.2185744903204547
0.36723580728008975,2.2185744903204547
0.36723580728008975,2.2238601983972477
0.36719176651144847,2.2238601983972477
0.36212986831468846,2.2362349400004455
0.34531062713032945,2.2362349400004455
0.34531062713032945,2.2362349400004455
0.34531062713032945,2.2362349400004455
0.34531062713032945,2.2362349400004455
0.34531062713032945,2.247448087315273
0.36719176651144847,2.3244524152385466
0.36719176651144847,2.345502019679721
0.3876483239887705,2.247448087315273
0.3876483239887705,2.3244524152385466
0.43874778114623936,2.247448087315273
0.4427475305717219,2.345502019679721
0.5160360597419534,1.9377132670883799
0.6171107647637544,1.8681811647411273
0.6171107647637544,1.8519445596237873
0.6171107647637544,1.8519445596237873
0.6171107647637544,1.8505190114238441
0.6171107647637544,1.7146136510339625
0.7153285605566705,1.7146136510339625
0.9878041344394437,1.6868247507016654
1.0686848782294285,1.6868247507016654
1.2404596727301604,1.7146136510339625
1.3794819193250054,1.717665027678094
1.4243532743599046,1.717665027678094
1.461222582892094,1.717665027678094
1.461222582892094,1.7146136510339625
1.4498901410359097,1.7146136510339625
1.4498901410359097,1.7146136510339625
1.4498901410359097,1.6878614315690543
1.4291095842037926,1.6868247507016654
1.117682081749301,1.6271485461576023
1.0499274343587093,1.6271485461576023
1.0499274343587093,1.6271485461576023
1.0499274343587093,1.6271485461576023
1.0499274343587093,1.6428460278646013
1.0499274343587093,1.6428460278646013
1.0499274343587093,1.6428460278646013
1.2018660389107219,1.6428460278646013
1.370306490200974,1.6428460278646013
1.4698057488338543,1.6428460278646013
1.5666190318277535,1.7159112916325583
1.6883885634552798,1.7159112916325583
1.8919245164731113,1.8414690826574316
1.8919245164731113,1.8414690826574316
1.8915208849094756,1.8414690826574316
1.797685685857199,1.8838584487900105
1.797685685857199,1.8939384619428234
1.7678349765498496,1.8838584487900105
1.7678349765498496,2.0629932983486254
1.7678349765498496,1.992047682224172
1.7678349765498496,1.992047682224172
1.7678349765498496,2.0629932983486254
1.7678349765498496,2.0629932983486254
1.7678349765498496,1.992047682224172
1.797685685857199,1.992047682224172
1.972405996116246,1.8682625814303655
1.9733994391665137,1.8682625814303655
2.092563731515945,1.8682625814303655
2.092563731515945,1.992047682224172
2.051141841483109,1.992047682224172
2.0536719581170466,1.8682625814303655
2.051141841483109,1.593262334372399
1.9733994391665137,1.593262334372399
1.972405996116246,1.593262334372399
1.9636565729401856,1.7634957448663282
1.9007341700547298,1.7634957448663282
1.757429748146786,1.593262334372399
1.757429748146786,1.593262334372399
1.757429748146786,1.593262334372399
1.757429748146786,1.593262334372399
1.757429748146786,1.7634957448663282
1.7171682498049552,1.7634957448663282
1.7171682498049552,1.7634957448663282
1.757429748146786,1.7634957448663282
1.8872669979488161,1.7634957448663282
1.9677452831026496,1.8222790107497187
1.9878890722875795,1.903071955397077
1.998532105559469,1.903071955397077
1.998532105559469,1.8222790107497187
1.9878890722875795,1.8222790107497187
1.8872669979488161,1.8222790107497187
1.998532105559469,1.9750509664543474
2.056891776867069,1.9750509664543474
2.0874133604473477,1.9750509664543474
2.0874133604473477,2.021320824808656
2.0874133604473477,1.8734191711737687
2.0874133604473477,1.8734191711737687
2.0874133604473477,1.8734191711737687
2.056891776867069,2.021320824808656
1.9763309809088745,2.021320824808656
2.056891776867069,1.8734191711737687
2.103803253399071,1.6739909601996734
2.175105283272963,1.6739909601996734
2.175105283272963,1.6739909601996734
2.175105283272963,1.6739909601996734
2.175105283272963,1.7783582885128142
2.175105283272963,1.7783582885128142
2.1923489265982843,1.7783582885128142
2.1923489265982843,1.7783582885128142
2.300479964464571,1.7783582885128142
2.324097563181352,1.856677331837073
2.4828679062764483,1.9513849330649065
2.4173701222523105,2.068389976221255
2.525295110595693,2.2250034424677243
2.466560127310911,2.068389976221255
2.466560127310911,1.9513849330649065
2.466560127310911,2.068389976221255
2.466560127310911,2.1270827228879527
2.466560127310911,2.1270827228879527
2.4018625888050087,2.1007805503602484
2.198668625343596,1.8221053017044642
1.845551228276036,1.5067223598540627
1.697340401571211,1.5067223598540627
1.697340401571211,1.5067223598540627
1.653293133446836,1.5067223598540627
1.6125616307103419,1.8083175411602415
1.5471900373785707,1.8083175411602415
1.5471900373785707,1.8083175411602415
1.541251157207899,1.7132021598572749
1.4496607740548675,1.7132021598572749
1.3773930694287093,1.7132021598572749
1.12768916500295,1.8083175411602415
0.9118649423713205,1.8083175411602415
0.8201112193922518,1.8083175411602415
0.8042441162036539,1.8083175411602415
0.8042441162036539,1.8083175411602415
0.8042441162036539,1.8449470015754055
0.7824596945114431,1.8840908469936786
0.7639380272779505,1.8449470015754055
0.7639380272779505,1.8840908469936786
0.7639380272779505,1.8358530229515164
0.8042441162036539,1.8358530229515164
0.8042441162036539,1.8358530229515164
0.8201112193922518,1.8358530229515164
0.8400564279978037,1.833909529001475
0.9207808935898364,1.7492589065941495
0.9207808935898364,1.7462775199581613
1.0496195451942991,1.7462775199581613
1.1592225576958504,1.7462775199581613
1.1973181447350048,1.7462775199581613
1.3399828313001574,1.7462775199581613
1.4003146033054785,1.6710216210700357
1.434952246583719,1.6710216210700357
1.4471103716607907,1.6710216210700357
1.471965366173355,1.6710216210700357
1.5116867930320157,1.6376204882724656
1.6500765618167639,1.6376204882724656
1.6614864844549195,1.6710216210700357
1.6614864844549195,1.6710216210700357
1.6614864844549195,1.6710216210700357
1.6614864844549195,1.6710216210700357
1.760646529835964,1.8041179250322485
1.841287440593204,2.047614512774078
1.9844837506935455,2.047614512774078
1.9844837506935455,2.047614512774078
2.056802737579991,2.0497902947400966
2.119501817448178,2.1287012664754466
2.1706351522823497,2.165236159384472
2.368332870495462,2.2275295383099687
2.368332870495462,2.2275295383099687
2.368332870495462,2.2275295383099687
2.368332870495462,2.432370077847334
2.4266837560706405,2.659996823341543
2.550850406911952,2.5847651793073916
2.693063280790033,2.5847651793073916
2.7205430862006725,2.432370077847334
2.7642728536734658,2.432370077847334
2.8964976324287655,2.432370077847334
2.8964976324287655,2.38706119764747
2.693063280790033,2.3160668259567903
2.6053442987667306,2.3123344065421123
2.6053442987667306,2.3123344065421123
2.6053442987667306,2.3123344065421123
2.6053442987667306,2.3123344065421123
2.6053442987667306,2.3123344065421123
2.630860144344569,2.324466561809708
2.630860144344569,2.3123344065421123
2.630860144344569,2.027075137831453
2.7131665557930886,1.9718080761591936
2.7131665557930886,1.9718080761591936
2.733561703095589,1.9718080761591936
3.0380658791610946,2.1126249190855457
3.3341644850998944,2.1126249190855457
3.3341644850998944,1.9718080761591936
3.3341644850998944,1.9718080761591936
3.4924953846736106,1.9718080761591936
3.4924953846736106,1.9718080761591936
2.9750603997179175,2.0270562019602547
2.7464107088652567,2.0270562019602547
2.7434610815712746,2.0270562019602547
2.7434610815712746,2.0270562019602547
2.7434610815712746,2.0270562019602547
2.7434610815712746,2.0270562019602547
2.7434610815712746,2.0270562019602547
2.7434610815712746,2.129202889954858
2.7434610815712746,2.468562435584133
2.7434610815712746,2.178813253209368
2.7434610815712746,2.178813253209368
2.852558138746177,2.468562435584133
3.0450771628241755,2.510224502048336
3.4209635855456355,2.564335134106015
3.4578206544803036,2.598983686317387
3.500248041016908,2.598983686317387
3.4850330451274663,2.609294540964095
3.446593343612055,2.609294540964095
3.233970903980447,2.598983686317387
2.772712947485728,2.3748501493999457
2.772712947485728,2.3748501493999457
2.772712947485728,2.3748501493999457
2.772712947485728,2.3748501493999457
2.772712947485728,2.3748501493999457
2.5618584971816407,2.3748501493999457
2.5618584971816407,2.274584408482853
2.5618584971816407,2.149268976746596
2.5618584971816407,2.149268976746596
2.5618584971816407,2.274584408482853
2.747487798295191,2.4896199381503137
3.0253866243756553,2.274584408482853
2.986950034625571,2.239869740567857
2.747487798295191,2.080752164328904
2.747487798295191,2.080752164328904
2.747487798295191,2.080752164328904
2.9198624760783294,1.8450469172085973
2.7455920957888384,1.8450469172085973
2.7455920957888384,1.8450469172085973
2.7455920957888384,1.8450469172085973
2.7455920957888384,1.8450469172085973
2.7455920957888384,1.8450469172085973
2.7455920957888384,1.8450469172085973
2.8727279971708524,2.0636921523466927
2.914695259896785,2.3252121991863643
2.914695259896785,2.335461546707844
2.914695259896785,2.335461546707844
2.927867909765953,2.6088544053974947
3.0438867251502124,2.552592628091627
3.0754738202801204,2.6088544053974947
3.2051693792551084,2.5769264698423893
3.2051693792551084,2.552592628091627
3.2051693792551084,2.5160498949663928
3.2051693792551084,2.335461546707844
3.2051693792551084,1.8267128427723305
3.084299384055694,1.8267128427723305
3.084299384055694,1.8267128427723305
3.084299384055694,1.8267128427723305
3.084299384055694,1.8267128427723305
2.7960745950814285,1.8031727303669463
2.7945198721026787,1.7907092879050381
2.3997259778461935,1.7907092879050381
2.3269927768139302,1.8031727303669463
2.140705273890337,1.8267128427723305
1.777127969666327,1.8267128427723305
1.761888433036851,2.211940932403904
1.761888433036851,1.7907092879050381
1.761888433036851,1.7653907194686442
1.761888433036851,1.6567380632010684
1.761888433036851,1.6567380632010684
1.761888433036851,1.6567380632010684
1.761888433036851,1.6567380632010684
1.5036833723976843,1.6567380632010684
1.5036833723976843,1.6567380632010684
1.5036833723976843,1.6567380632010684
1.4845539797674752,1.6567380632010684
1.4845539797674752,1.8092987551700683
1.2899140920123076,1.8200797935654651
0.9392752128702104,1.8361655028551902
0.8471037669733451,1.907881276639682
0.6645181532723465,1.9258346193748173
0.4961336870825409,1.9258346193748173
0.42171516776422624,1.9318392970705878
0.42171516776422624,2.237108473230258
0.42171516776422624,2.237108473230258
0.42171516776422624,2.1317898693144466
0.42171516776422624,2.1317898693144466
0.42171516776422624,2.1317898693144466
0.42171516776422624,2.1317898693144466
0.42171516776422624,2.132559837086255
0.42171516776422624,2.132559837086255
0.5451359619538929,2.132559837086255
0.6171271943689152,1.8949406058325637
0.6564116690750269,1.8949406058325637
0.7570986527136309,1.8292562834111412
0.7607678091497296,1.8292562834111412
0.7901950890487702,1.8292562834111412
0.8022389767511074,1.8949406058325637
0.8090035547315568,1.8949406058325637
0.8090035547315568,1.8949406058325637
0.8090035547315568,1.8949406058325637
0.8022389767511074,1.8949406058325637
0.7570986527136309,1.8949406058325637
0.6864064617920274,1.9125055715371728
0.45919366788935395,1.9392540519738228
0.4528006481786398,1.9392540519738228
0.4528006481786398,1.9126588112006995
0.4064679939194422,1.9126588112006995
0.24182874069543206,1.9126588112006995
0.23421223142355066,1.9392540519738228
0.21123757400907842,2.1385573153174837
0.20801311866158792,2.1517696122279157
0.20801311866158792,2.1517696122279157
0.20801311866158792,2.1517696122279157
0.20801311866158792,2.1517696122279157
0.20801311866158792,2.2484962009066134
0.20801311866158792,2.2665378645044343
0.20801311866158792,2.301114625840538
0.20801311866158792,2.2466347065082637
0.23285220449238908,2.210528513785186
0.2500578348469253,2.1385573153174837
0.3001946801680097,2.210528513785186
0.43611407976444616,1.866319631056683
0.5713705392195468,1.866319631056683
0.5713705392195468,1.866319631056683
0.5713705392195468,1.8042625646235881
0.5713705392195468,1.7391819265089388
0.6688664371958564,1.7216576144956168
0.876965418796767,1.7216576144956168
1.1097088692650956,1.7216576144956168
1.268409822119165,1.7306180122615662
1.3010450442253747,1.7306180122615662
1.3713318055396304,1.7216576144956168
1.3964779934060605,1.6704520129003424
1.3967683212928854,1.6704520129003424
1.3967683212928854,1.6704520129003424
1.3967683212928854,1.6426934989341022
1.3964779934060605,1.6241552160242654
1.3964779934060605,1.5997749129513712
1.1657436455964247,1.5997749129513712
1.1154308956229662,1.5997749129513712
1.1126639668831735,1.5997749129513712
1.1126639668831735,1.6426934989341022
1.1126639668831735,1.6426934989341022
1.1126639668831735,1.5997749129513712
1.1126639668831735,1.5997749129513712
1.1126639668831735,1.5997749129513712
1.1657436455964247,1.79843350527241
1.189071982072563,1.79843350527241
1.2581992290790887,1.8688495620566656
1.3899756429664034,1.9162532028466333
1.8714295556226235,1.9162532028466333
2.3074270378947226,1.9162532028466333
2.535985247961217,1.9185243020396479
2.535985247961217,1.9185243020396479
2.535985247961217,1.9185243020396479
2.3074270378947226,1.9839963217924037
2.079231025914558,1.9185243020396479
2.050271601672911,1.9185243020396479
2.0484050043524955,1.9839963217924037
1.816852230802972,1.6256085567718355
1.7370149439809701,1.6256085567718355
1.7064454062088463,1.6256085567718355
1.7064454062088463,1.6256085567718355
1.7064454062088463,1.6256085567718355
1.7064454062088463,1.6256085567718355
1.7064454062088463,1.6994074732536149
1.7370149439809701,1.7702412884451475
1.7370149439809701,1.931013563546542
2.2306163971283426,1.7897813334821073
2.2306163971283426,1.7897813334821073
2.2306163971283426,1.8792267669339315
2.2395040691595476,1.8792267669339315
2.2395040691595476,1.931013563546542
2.2306163971283426,1.8783265139648995
1.9649630842432202,1.8783265139648995
1.9197117106966923,1.8783265139648995
1.9107155916339258,1.8783265139648995
1.8254664402427474,1.7897813334821073
1.7799041381372618,1.7897813334821073
1.489126015197354,1.6691174899314598
1.489126015197354,1.661313942760259
1.489126015197354,1.661313942760259
1.489126015197354,1.661313942760259
1.489126015197354,1.6691174899314598
1.489126015197354,1.661313942760259
1.489126015197354,1.5674208767507778
1.708049985852769,1.3010291639017992
1.9448149744247962,1.3010291639017992
2.0587082592032955,1.3010291639017992
2.0587082592032955,1.4765117920266277
2.0780996066620663,1.3010291639017992
2.07945895048669,1.3010291639017992
2.0347762858679777,1.3010291639017992
2.0038236180879796,1.3010291639017992
1.9448149744247962,1.3010291639017992
1.992352599893912,1.3010291639017992
1.8662927700436487,1.5621178467555676
1.7766496611883387,1.665313903423328
1.7766496611883387,1.5621178467555676
1.7766496611883387,1.4526589723572072
1.7766496611883387,1.4526589723572072
1.7766496611883387,1.4526589723572072
1.7766496611883387,1.4526589723572072
1.916805193561011,1.4526589723572072
2.0999653464347308,1.4526589723572072
2.2501204219324644,1.4526589723572072
2.2692248964468917,1.4526589723572072
2.3395354179360526,1.4526589723572072
2.55569692501516,1.5669767608567584
2.5728880197912525,1.8915494772985313
2.728987581619104,2.4153445490984606
2.972590827894993,2.1563302189465348
2.96044623632806,2.0011088181035777
2.972590827894993,2.117241495847922
2.9729401200124475,2.1563302189465348
2.977470934053239,2.4153445490984606
2.8550558684708145,2.1563302189465348
2.281680214631463,2.117241495847922
2.1344034469054733,2.108201786486119
1.7616391831682372,2.0011088181035777
1.633882492789609,2.0011088181035777
1.626471626038962,2.0011088181035777
1.4418481519870785,2.0011088181035777
1.1654324271812064,1.9432911587750863
1.0787304138715608,1.7711117953675393
1.0787304138715608,1.7711117953675393
1.0787304138715608,1.7711117953675393
1.0787304138715608,1.7711117953675393
1.0787304138715608,1.7061553889991912
1.0787304138715608,1.7061553889991912
1.0787304138715608,1.7061553889991912
1.0787304138715608,1.7061553889991912
0.9789551816298301,1.7061553889991912
0.9789551816298301,1.7061553889991912
0.9789551816298301,1.7336921199548545
0.9789551816298301,1.4927432367321358
0.9789551816298301,1.4676692268880713
0.9789551816298301,1.4676692268880713
0.9789551816298301,1.4676692268880713
0.9789551816298301,1.627335531125462
0.928659525668018,1.7336921199548545
0.9180726844461597,1.7336921199548545
0.8708362164915375,1.7336921199548545
0.8708362164915375,1.7336921199548545
0.8708362164915375,1.7336921199548545
0.8708362164915375,1.7817895053060457
0.818590826372263,1.8906977918480428
0.818590826372263,1.8906977918480428
0.818590826372263,1.8906977918480428
0.818590826372263,1.8906977918480428
0.818590826372263,1.8906977918480428
0.899876475057818,1.8906977918480428
0.9034729179080648,1.8906977918480428
1.024556015415181,1.8906977918480428
1.024556015415181,1.8448961115446463
1.0883480027289627,1.8448961115446463
1.1290907911713437,1.8448961115446463
1.1290907911713437,1.8448961115446463
1.407840769474805,1.8448961115446463
1.5039155847461505,1.8448961115446463
1.8954358392897241,1.8395724742267574
1.9039443844355257,1.8395724742267574
2.041657409057248,1.8395724742267574
2.075904249740013,1.8395724742267574
2.066847578171473,1.8395724742267574
2.062185862730821,1.809235210894758
2.03921851206647,1.809235210894758
2.03921851206647,1.809235210894758
2.03921851206647,1.809235210894758
2.03921851206647,1.809235210894758
2.062185862730821,1.809235210894758
2.112033123310412,1.9587951988006336
2.112033123310412,2.2237617043679445
2.112033123310412,1.9623125319066492
2.112033123310412,1.9623125319066492
2.112033123310412,1.9623125319066492
2.2449693224567455,2.153587550437393
2.3873523908881666,2.153587550437393
2.715170888704223,1.9961687817051033
2.7408362783460585,1.9961687817051033
2.8819088449792805,1.9961687817051033
2.944020848182195,1.9961687817051033
2.944020848182195,1.9961687817051033
2.944020848182195,1.9961687817051033
2.944020848182195,2.153587550437393
2.944020848182195,2.0116864017608966
2.944020848182195,2.0116864017608966
2.944020848182195,2.0116864017608966
2.944020848182195,2.2463816429041437
3.0295920416901536,2.2463816429041437
2.934330658103406,2.067234092056751
2.934330658103406,2.067234092056751
2.9603973280049765,2.067234092056751
2.9603973280049765,2.067234092056751
2.934330658103406,1.9937623746256996
2.699496419370588,1.9937623746256996
2.699496419370588,1.9937623746256996
2.699496419370588,1.9937623746256996
2.699496419370588,1.9937623746256996
2.7404355894732912,1.9937623746256996
2.5528821884772643,2.067234092056751
2.3889302444803766,1.9937623746256996
2.2333520508012676,1.9000977161101331
2.1292115534412828,1.9000977161101331
2.1292115534412828,1.9000977161101331
2.1292115534412828,1.9000977161101331
2.1292115534412828,2.0811663386339845
2.1292115534412828,1.7415535804945672
2.1292115534412828,1.7415535804945672
2.1292115534412828,1.7415535804945672
2.1292115534412828,1.7415535804945672
2.1292115534412828,1.7415535804945672
2.1690970348340084,1.7415535804945672
2.270098984126246,1.7415535804945672
2.2989053026672,1.6327205073860243
2.392888512903673,1.6327205073860243
2.429853142041658,1.6327205073860243
2.3948298101090266,1.6327205073860243
2.3948298101090266,1.8026756152619103
2.3948298101090266,1.8217702586866684
2.3948298101090266,1.8217702586866684
2.3948298101090266,1.8217702586866684
2.3948298101090266,1.932537580368778
2.3948298101090266,1.9501139156433613
2.437373588234981,1.9501139156433613
2.66611250112795,1.9501139156433613
2.7418116643029316,1.9501139156433613
3.074580135071761,1.9501139156433613
3.2343239697056556,1.9501139156433613
3.249340891990134,1.9501139156433613
3.2343239697056556,1.9501139156433613
3.2343239697056556,2.0043736515510404
3.2343239697056556,2.0043736515510404
3.2343239697056556,2.268732484854919
3.2343239697056556,2.3317072307335036
3.3491932443878456,2.443257967612169
3.404983434532102,2.4527193689503983
3.434607445162805,2.4527193689503983
3.434607445162805,2.4527193689503983
3.434607445162805,2.4527193689503983
3.4446668693715417,2.268732484854919
3.5064366869868557,2.1480124007355297
3.4446668693715417,2.10061103744003
3.3769685992824985,2.10061103744003
3.3769685992824985,2.10061103744003
3.312004978519257,2.10061103744003
3.2804861520495607,2.0449921560971474
3.0364008505758617,2.0449921560971474
2.4627533621818234,2.0449921560971474
2.4002992800999103,2.0449921560971474
2.094620254162498,2.0449921560971474
1.6149884054735035,2.072170122704673
1.6149884054735035,2.10061103744003
1.5437288593306189,2.065418109910707
1.1549593883123763,1.9938120798208594
1.1549593883123763,1.9026965795830406
1.1549593883123763,1.8846020406758004
1.1549593883123763,1.8846020406758004
1.1549593883123763,1.8846020406758004
1.5437288593306189,1.8846020406758004
1.6149884054735035,1.8846020406758004
1.6446389769756036,1.9793195355026938
1.4231768686971218,1.931427145359724
1.4231768686971218,1.931427145359724
1.4231768686971218,1.931427145359724
1.2988697329071115,1.9793195355026938
1.0246319255828786,1.9809489213215847
0.8785315626182805,1.9809489213215847
0.7729353621505923,1.9793195355026938
0.7569563885111367,1.931427145359724
0.7366876373046882,1.931427145359724
0.5409656598782748,1.931427145359724
0.5390020301067455,1.931427145359724
0.4497395841895673,2.0911669944357953
0.4377251068645315,2.0911669944357953
0.4227602330878136,2.0911669944357953
0.4227602330878136,2.0911669944357953
0.37046493157232485,2.1509092279245206
0.35541100678912146,2.228338033410713
0.35541100678912146,2.206414436441251
0.35541100678912146,2.206414436441251
0.35541100678912146,2.1509092279245206
0.37046493157232485,2.1509092279245206
0.4227602330878136,2.1509092279245206
0.4227602330878136,2.206414436441251
0.43424476755622604,1.9155908536309074
0.464869060000978,1.9155908536309074
0.5432716291679665,1.8866169670692383
0.5488695760414297,1.8866169670692383
0.5506249203028057,1.8866169670692383
0.5803273559256852,1.8980320416791698
0.5803273559256852,1.8980320416791698
0.5803273559256852,1.8980320416791698
0.599586030914601,1.8980320416791698
0.599586030914601,1.8980320416791698
0.599586030914601,1.8980320416791698
0.599586030914601,1.8980320416791698
0.37152207904541784,1.9972101791023509
0.37152207904541784,1.9972101791023509
0.37152207904541784,1.9972101791023509
0.37152207904541784,1.9972101791023509
0.3662168612527163,2.014236953857628
0.3526528553929861,2.0443440441207095
0.3025628824278107,2.1434812370930465
0.2757923895946118,2.144590035859571
0.2757923895946118,2.144590035859571
0.2757923895946118,2.144590035859571
0.2757923895946118,2.144590035859571
0.2757923895946118,2.2684475518986984
0.2757923895946118,2.292308147197049
0.2757923895946118,2.309180508155258
0.2757923895946118,2.292308147197049
0.3457028006548177,2.225028379161481
0.3900216254450201,2.222254915141675
0.3972572729570193,2.222254915141675
0.44833913317619767,2.225028379161481
0.44833913317619767,1.843254144339772
0.44833913317619767,1.8373728391566109
0.44833913317619767,1.7625140591612294
0.44833913317619767,1.7330055488745102
0.44833913317619767,1.7330055488745102
0.7897834469129694,1.7330055488745102
0.8240654008621553,1.7330055488745102
1.0472883806316349,1.7330055488745102
1.1759924726718547,1.7330055488745102
1.2484515916126742,1.7324422395877452
1.332113597643983,1.693491241533413
1.332113597643983,1.693491241533413
1.332113597643983,1.7324422395877452
1.332113597643983,1.7324422395877452
1.332113597643983,1.7324422395877452
1.332113597643983,1.648009455379979
1.2291631053511625,1.648009455379979
1.1477157855324098,1.648009455379979
1.0707450700406833,1.648009455379979
1.0653632603713306,1.648009455379979
1.0233679993274358,1.648009455379979
0.9595640600330066,1.6212876739870627
0.9595640600330066,1.5264944325850738
0.9595640600330066,1.5264944325850738
0.9595640600330066,1.6212876739870627
0.9595640600330066,1.713365345709877
1.0233679993274358,1.713365345709877
1.0374304158754601,1.6212876739870627
1.3876878886869335,1.532855078237675
1.541446647194223,1.532855078237675
1.5960480717008123,1.532855078237675
1.646568460357867,1.532855078237675
1.7989729044077083,1.6621822878952635
1.9975191809514223,1.6621822878952635
2.059454749770452,1.6621822878952635
2.2463498880402155,1.6621822878952635
2.3989643833631598,1.6621822878952635
2.428598592157765,1.786472602368167
2.7846672928243863,1.8952627309774952
2.865611774706957,1.9317284834511248
3.104291913836988,2.0178095700841934
3.104291913836988,2.0178095700841934
3.3456466228371693,2.0178095700841934
3.374288173554531,1.9317284834511248
3.3767298037902607,2.1369552880794718
3.366972845524436,2.1878154898627398
3.104291913836988,2.226960353892639
2.954694160041832,2.476650125964429
1.779302105722883,2.5200488805452324
1.5569485857101806,2.5200488805452324
1.4102094271542727,2.476650125964429
1.4102094271542727,2.0733811727596363
1.4102094271542727,1.9828163997168982
1.4102094271542727,1.9828163997168982
1.4102094271542727,2.0739789374001165
1.4102094271542727,2.0739789374001165
1.4102094271542727,2.0733811727596363
1.4102094271542727,1.9828163997168982
1.6547945589074995,1.77205292669503
1.6652575887502428,1.77205292669503
1.8894212302004911,1.77205292669503
1.9034026257704537,1.77205292669503
2.1571652483744037,1.8211653059588175
2.1571652483744037,1.77205292669503
2.1571652483744037,1.6573676214704813
2.1571652483744037,1.6573676214704813
2.1571652483744037,1.6573676214704813
2.1898553591454255,1.8211653059588175
2.1898553591454255,1.77205292669503
2.2580684930431323,1.6573676214704813
2.1898553591454255,1.6573676214704813
2.0565856452342053,1.6573676214704813
2.0385553953469935,1.6573676214704813
2.01801242732675,1.6573676214704813
1.984354077246669,1.6573676214704813
1.933602860866354,1.7041815150727933
1.933602860866354,1.7041815150727933
1.8926771100005835,1.7041815150727933
1.8302253775931192,1.7041815150727933
1.6269561485244215,1.7041815150727933
1.6156814812447988,1.7041815150727933
1.6156814812447988,1.472221605812425
1.6038080534335593,1.472221605812425
1.6038080534335593,1.472221605812425
1.6156814812447988,1.472221605812425
1.6156814812447988,1.7717509955121737
1.6156814812447988,1.7717509955121737
1.6156814812447988,1.7717509955121737
1.6663953990790876,1.7717509955121737
1.8542529602481825,1.7717509955121737
2.217633565087165,1.843767973849791
2.3027615641738577,1.882619998403615
2.3571519783715926,1.9512144721959024
2.8396303783682213,2.1262289810193438
2.2469786989360347,2.1262289810193438
2.3571519783715926,2.1262289810193438
2.1166621370612373,2.1326623841999655
2.0141924902652297,2.1326623841999655
2.0141924902652297,2.1763774948233587
1.9868231184554102,2.2382130366466693
1.8845891606111658,2.2382130366466693
1.8805421301220573,2.2382130366466693
1.7417060776369773,2.237165477537039
1.3911512404881152,2.237165477537039
1.32344444529459,2.1248370423897898
1.2794822865344002,2.1248370423897898
1.045316012298931,2.1248370423897898
0.7386643057390886,2.0838466232914983
0.6212269742361038,2.0838466232914983
0.6212269742361038,1.96241051097466
0.6212269742361038,1.96241051097466
0.6212269742361038,1.96241051097466
0.6212269742361038,2.0838466232914983
0.6031546377639745,2.0838466232914983
0.600892389051017,2.0838466232914983
0.600892389051017,1.96241051097466
0.577682816659931,1.96241051097466
0.5730274921262826,1.96241051097466
0.5644481275796579,1.96241051097466
0.5644481275796579,1.96241051097466
0.536885048065722,1.9342652757511491
0.536885048065722,1.9342652757511491
0.536885048065722,1.9342652757511491
0.536885048065722,1.9342652757511491
0.536885048065722,1.9691500344034765
0.536885048065722,1.9691500344034765
0.536885048065722,1.9691500344034765
0.5644481275796579,1.9342652757511491
0.5829159501790613,1.9342652757511491
0.5853214771899953,1.9342652757511491
0.5952354560718985,1.9691500344034765
0.6496878641098883,1.8944294481122521
0.6496878641098883,1.8342728468040672
0.7405968387731685,1.8342728468040672
0.8013365882823895,1.8342728468040672
0.9147070451917506,1.8342728468040672
0.967041720826805,1.8944294481122521
1.0286843066518223,1.901450470620952
1.351807334172887,1.950505933449762
1.384577535747436,1.950505933449762
1.4889181632052282,1.950505933449762
1.778115541707992,1.901450470620952
1.778115541707992,1.901450470620952
1.778115541707992,1.583058187791276
1.7702329589014976,1.583058187791276
1.7702329589014976,1.583058187791276
1.7702329589014976,1.583058187791276
1.7702329589014976,1.583058187791276
1.7702329589014976,1.583058187791276
1.7702329589014976,1.573790645134473
1.7702329589014976,1.4924219302058817
1.7702329589014976,1.4924219302058817
1.7702329589014976,1.573790645134473
1.8554246708233768,1.9457851458662305
2.1146144042586132,1.9457851458662305
2.2657204368478867,2.1690764967309657
2.5698963479587387,2.1690764967309657
3.1632768776801976,1.9457851458662305
3.2521952932199643,1.8569858256579332
3.2521952932199643,1.8569858256579332
2.911224761184853,1.9019250294099428
2.6207989504526923,2.0545182769541346
2.6207989504526923,1.9019250294099428
2.6207989504526923,1.9019250294099428
2.8061342148973814,1.9019250294099428
2.888076966505051,1.9019250294099428
2.888076966505051,1.9019250294099428
2.888076966505051,1.9019250294099428
2.888076966505051,2.0545182769541346
2.888076966505051,2.073626585355909
2.888076966505051,2.2587932714255405
3.0484044629677247,2.2010933566600728
3.0484044629677247,2.2010933566600728
2.8842630959735835,2.2010933566600728
2.6332893947872393,2.0186690040623483
2.5232383895804955,2.0186690040623483
2.5232383895804955,2.0186690040623483
2.5232383895804955,1.8138113561719844
2.5232383895804955,1.8092352108950795
2.5232383895804955,1.8092352108950795
2.5232383895804955,1.8092352108950795
2.5232383895804955,1.8092352108950795
2.5232383895804955,1.8092352108950795
2.5232383895804955,1.8138113561719844
2.5903657078378157,1.9814157581626657
2.5835700630483385,2.089426054578108
2.5290442845008307,1.9814157581626657
2.5290442845008307,1.9814157581626657
2.5652398261631975,2.089426054578108
2.5221529483901985,2.1569000349906293
2.5221529483901985,2.2803698642956527
2.5221529483901985,2.2803698642956527
2.5221529483901985,2.2803698642956527
2.5221529483901985,2.1707484363873646
2.5221529483901985,2.1215706316211547
2.5221529483901985,2.0580099371014753
2.5652398261631975,2.0580099371014753
2.5652398261631975,2.1215706316211547
2.5652398261631975,2.0580099371014753
2.6480868178923895,2.0580099371014753
2.701008316156059,2.0580099371014753
2.814637256835208,1.9706701193991252
2.814637256835208,1.9706701193991252
2.773636711541931,1.6649997310771187
2.773636711541931,1.6649997310771187
2.773636711541931,1.6649997310771187
2.773636711541931,1.6649997310771187
2.457524926562521,1.6649997310771187
2.457524926562521,1.9706701193991252
2.457524926562521,2.177194400921668
2.457524926562521,2.067096635284671
2.457524926562521,1.9612328011803657
2.457524926562521,1.9612328011803657
2.457524926562521,2.0131568372339115
3.1198209113571678,2.067096635284671
3.1480386557027447,2.032155285410843
3.1480386557027447,2.0131568372339115
3.1480386557027447,1.9612328011803657
3.3029846300941625,1.8564545554682421
3.334463297926938,1.7663516436069155
3.3029846300941625,1.7663516436069155
3.3029846300941625,1.7663516436069155
3.3029846300941625,1.7663516436069155
2.825253905181797,1.7663516436069155
2.692515637824931,1.7663516436069155
2.474396431674023,1.7663516436069155
2.1671766546314144,1.7663516436069155
1.9401607681074786,1.8016115039742362
1.7469535427205396,1.8640129271949264
1.5960409463024843,1.8640129271949264
1.5960409463024843,1.8640129271949264
1.5960409463024843,1.8387263175664923
1.5960409463024843,1.8053128276170272
1.5960409463024843,1.8053128276170272
1.5960409463024843,1.8053128276170272
1.5960409463024843,1.8387263175664923
1.3256999271583503,1.8387263175664923
1.3256999271583503,1.8387263175664923
1.3256999271583503,1.8387263175664923
1.2734435054154356,1.8387263175664923
1.2537864665293863,1.9731237371810357
1.1091004281272512,1.9731237371810357
0.7078929087019602,1.9731237371810357
0.7078929087019602,2.0356960750909923
0.6588417513255583,2.0356960750909923
0.6168378442356246,2.0356960750909923
0.568692437067273,2.076100799172955
0.5064924458953325,2.0974065095972767
0.5064924458953325,2.0974065095972767
0.5064924458953325,2.0974065095972767
0.5064924458953325,2.076100799172955
0.568692437067273,1.9965293963933777
0.6060468512781388,1.9965293963933777
0.6060468512781388,1.9965293963933777
0.5896841344327646,1.9965293963933777
0.568692437067273,1.9965293963933777
0.5064924458953325,1.9965293963933777
0.4956468158061847,1.9965293963933777
0.4535085913858223,1.9965293963933777
0.4535085913858223,1.9965293963933777
0.4535085913858223,1.9965293963933777
0.4535085913858223,2.1076354141765283
0.4535085913858223,2.1076354141765283
0.4535085913858223,2.0901748511049907
0.4535085913858223,2.0901748511049907
0.4535085913858223,2.0343606407343233
0.5127895150863193,1.9646740528575075
0.6174671920198345,1.9646740528575075
0.5127895150863193,1.9646740528575075
0.5127895150863193,2.0343606407343233
0.39359662745452545,2.0343606407343233
0.3361578959260503,2.0343606407343233
0.3071159922144746,2.0343606407343233
0.30482586333003353,2.0901748511049907
0.2978873809695189,2.196545948190698
0.29584762814943877,2.196545948190698
0.29584762814943877,2.205487078112269
0.29584762814943877,2.220430572335276
0.29584762814943877,2.220430572335276
0.30482586333003353,2.220430572335276
0.31156464337520073,2.220430572335276
0.3361578959260503,2.220430572335276
0.38836391573751666,2.2211935411805004
0.38836391573751666,2.3723462572485454
0.4180381173033907,2.321021622494591
0.4774380224797416,2.2211935411805004
0.4180381173033907,2.2712567057096518
0.5117018386946353,2.3723462572485454
0.5884994450706054,2.321021622494591
0.6911963611607982,1.9433668776023998
0.7938947521990515,1.8510290041596793
0.7938947521990515,1.8262263186407124
0.7938947521990515,1.812090068382829
0.7938947521990515,1.812090068382829
0.7938947521990515,1.812090068382829
0.7938947521990515,1.7526644751313492
0.8548788708116696,1.7139196229779903
1.169197118451068,1.6954947242741385
1.2544117569101765,1.6954947242741385
1.3308530374434282,1.6954947242741385
1.3335016185612345,1.6954947242741385
1.3601804803484103,1.6954947242741385
1.3601804803484103,1.6954947242741385
1.3601804803484103,1.6828740123553037
1.3360200357404068,1.6828740123553037
1.3308530374434282,1.6828740123553037
1.2718914934950796,1.6954947242741385
1.2644613882693059,1.6639423885036588
1.14765480258309,1.5432627456511872
1.0147510133395827,1.5388219109333203
1.0147510133395827,1.5388219109333203
1.0147510133395827,1.5388219109333203
1.0147510133395827,1.5432627456511872
1.0147510133395827,1.682147118623395
1.0147510133395827,1.7318737077954518
1.0978440089669048,1.7606635442143388
1.333822363781568,1.682147118623395
1.5843039694785965,1.682147118623395
1.5899117190836083,1.7414647652763453
1.8376785230170132,1.7414647652763453
2.051472971909012,1.7414647652763453
2.1212309260700715,1.7414647652763453
2.2692450317942003,1.4579365084111682
2.5169607779180607,1.4375394749483732
2.5214737166703567,1.4375394749483732
2.5214737166703567,1.4375394749483732
2.5214737166703567,1.3026498946049312
2.5169607779180607,1.2199423046571685
2.401409574071805,1.2199423046571685
2.401409574071805,1.2199423046571685
2.401409574071805,1.2199423046571685
2.401409574071805,1.3026498946049312
2.401409574071805,1.4256162567365191
2.401409574071805,1.4375394749483732
2.1180705426866115,1.6376708315516755
2.0832445426569417,1.6964230900215267
2.047580357477714,1.6964230900215267
1.8470790664230312,1.7624738861291827
1.8128963929107471,1.7624738861291827
1.8128963929107471,1.7926161189299794
1.8128963929107471,1.6964230900215267
1.808730178326477,1.6964230900215267
1.8072838838893854,1.6964230900215267
1.7823704616855727,1.5911428458551389
