0.5332739542886606,5.231170158995724
0.5332739542886606,5.153043310913738
0.5332739542886606,4.502856168544253
0.5996967361176968,3.868858202189613
0.6808122953356269,3.094180568036585
0.6808122953356269,2.2121059818820745
0.6808122953356269,1.948233377592006
0.5947668625222723,1.948233377592006
0.5947668625222723,1.8771841759641792
0.6808122953356269,1.8654912449485361
0.741975090695605,1.4407670082599058
0.7786778169514327,1.301950638346081
0.8078734912358886,1.1731024495532947
0.8078734912358886,1.0919999683773554
0.8078734912358886,1.0919999683773554
0.8078734912358886,1.0919999683773554
0.9324389224959386,1.0919999683773554
0.9324389224959386,1.1242025989930613
1.4379371336113393,1.0919999683773554
1.4824284875314577,1.0519479670406928
1.4824284875314577,0.8575630284086577
1.5202776521348598,0.8575630284086577
1.5263921707883283,0.7606116346830745
1.7397182264531865,0.7606116346830745
1.8875189113450621,0.7439603033557258
1.8875189113450621,0.7399460401450266
1.8875189113450621,0.7275426898005435
1.8875189113450621,0.6532766533768484
2.010548083488332,0.6355854066993871
2.0127319559117995,0.6221847152269488
2.0127319559117995,0.6135832154198139
2.0329701028119174,0.6135832154198139
2.010548083488332,0.6135832154198139
1.9901397594916161,0.6135832154198139
1.9628228334724853,0.6135832154198139
1.8815103173638346,0.6302156615281411
1.7601410517107774,0.6355854066993871
1.610125676578725,0.6532766533768484
1.5844219953720076,0.7442786943095832
1.5830336881666343,0.8817487023199625
1.564109451440545,0.8863453392782202
1.560696558948494,0.9658498593422556
1.50393380564139,0.9788779331247769
1.4784199399821827,0.9916676140587594
1.381476998412164,1.0114942947845242
1.381476998412164,1.0144889070199445
1.381476998412164,1.0462562056365556
1.1611366961038792,1.0586012525698703
1.154644752934104,1.120222936233644
1.154644752934104,1.2427452009046427
1.154644752934104,1.2769239229927667
1.0627496685458242,1.4585827906940705
0.8942281830643392,1.6999205461564832
0.8942281830643392,1.9138782851863818
1.0627496685458242,2.831223295130882
0.989983401001386,4.082033009311243
0.989983401001386,5.387485343379932
0.989983401001386,5.754749881645186
0.989983401001386,5.763403165254835
1.0627496685458242,5.824565608093572
1.0627496685458242,5.824565608093572
1.0627496685458242,5.824565608093572
1.286957840019223,5.824565608093572
1.313592396598067,5.8276195556306165
1.3202482438948973,5.837919422277138
1.4082430752364206,5.864154056627356
1.4133806690090758,5.837919422277138
1.4190825587687341,5.837919422277138
1.568055587563549,5.820462052477364
1.6729807140910113,5.77457858205759
1.7489129406615433,5.764912222978223
1.827165778331789,5.647670970254391
1.7532193631434816,5.577074081392866
1.7532193631434816,5.434662337762319
1.540835137653048,5.363219112694731
0.9883920807418912,5.166248449254274
0.9883920807418912,4.843372506391791
0.9883920807418912,4.617904391410506
0.9883920807418912,4.089504463676989
0.9883920807418912,3.5644002298092063
0.9883920807418912,3.5644002298092063
0.9883920807418912,3.5644002298092063
0.9322079438271492,3.5644002298092063
0.9180433832283715,3.5644002298092063
0.9883920807418912,3.5644002298092063
1.1721759176018844,3.5644002298092063
1.1940942268380872,3.5644002298092063
1.4108775563218143,3.5644002298092063
1.4108775563218143,3.977352580378921
1.4108775563218143,4.082157048905056
1.4108775563218143,4.798989858308188
1.2762717138434159,5.577762615783884
1.2762717138434159,5.679415021283528
1.4108775563218143,5.679415021283528
1.4769496292178106,5.704610607570947
1.488447589168316,5.674692607976359
1.488447589168316,5.674692607976359
1.4769496292178106,5.630158596195315
1.4769496292178106,5.6074984187569195
1.4769496292178106,5.6074984187569195
1.488447589168316,5.593686278359118
1.488447589168316,5.550393187799056
1.488447589168316,5.5304848844607335
1.488447589168316,5.513940183182042
1.488447589168316,5.40185766711029
1.488447589168316,5.333556995926733
1.6358277240434964,5.333556995926733
1.6358277240434964,5.246302180503768
1.6781313706829795,5.110455310513464
1.6781313706829795,5.105668802882635
1.6781313706829795,5.105668802882635
1.6781313706829795,5.105668802882635
1.8584835980688852,5.105668802882635
1.793391522246267,5.105668802882635
1.8584835980688852,5.105668802882635
1.793391522246267,5.110455310513464
1.7604584958907883,5.171333835695919
1.7604584958907883,5.180085508958705
1.7604584958907883,5.180085508958705
1.7459809532918922,5.2001997766934
1.725097877249567,5.316374888828067
1.5964889240673161,5.316374888828067
1.5964889240673161,5.27311235633284
1.5964889240673161,5.2001997766934
1.5964889240673161,5.171333835695919
1.7568444063601785,5.171333835695919
1.7568444063601785,5.118296295662425
1.7568444063601785,5.080214646851659
1.7568444063601785,5.080214646851659
1.7568444063601785,5.080214646851659
1.8075568725566216,5.080214646851659
1.9983893989893027,5.080214646851659
1.9983893989893027,5.080214646851659
2.0711225452823614,5.080214646851659
1.8676812417941087,5.080214646851659
1.8676812417941087,5.080214646851659
1.8676812417941087,5.043815797626479
2.0711225452823614,5.043815797626479
2.0711225452823614,5.043815797626479
2.0711225452823614,4.965473460668422
2.0711225452823614,4.693278715244556
2.0711225452823614,4.518758106847742
2.115106217629997,4.14078386722556
2.194893702417795,4.14078386722556
2.2577577830478632,4.093474201906585
2.2577577830478632,3.837907923993654
2.2577577830478632,3.7347587706689045
2.2577577830478632,3.7347587706689045
2.328028177789027,3.7347587706689045
2.402894860005918,3.7347587706689045
2.577310473772851,3.4129057672106877
2.8465291794143615,3.3024026593038647
2.933376198744819,2.682168882222718
2.978607141830473,2.443760833341825
2.978607141830473,2.240358033288148
2.854918152116335,2.1666319617680805
2.854918152116335,2.1666319617680805
2.5116631058965564,1.9730618614460844
2.075481301642205,1.573237981803027
2.075481301642205,1.4050049533727027
2.075481301642205,1.1785269357708634
1.882460695292944,1.1785269357708634
1.8718926790160466,1.1274173584820635
1.8665589840296393,0.9717592617884773
1.8665589840296393,0.9537103858085697
1.8665589840296393,0.8729484620003519
1.8665589840296393,0.8729484620003519
1.728132685233948,0.8729484620003519
1.5614107758788203,0.8554479105803237
1.5614107758788203,0.8554479105803237
1.5614107758788203,0.8197497187670345
1.5614107758788203,0.7470531030666704
1.7751786021975207,0.7470531030666704
1.7751786021975207,0.7470531030666704
1.7751786021975207,0.7470531030666704
1.5614107758788203,0.7470531030666704
1.5614107758788203,0.7470531030666704
1.5614107758788203,0.7470531030666704
1.5614107758788203,0.7470531030666704
1.4898909096850366,0.7538342902820252
1.410509838049195,0.8146131019769619
1.410509838049195,0.8587998916878566
1.410509838049195,0.9797991331992539
1.410509838049195,0.9797991331992539
1.4898909096850366,0.9797991331992539
1.7054333950731926,0.9797991331992539
1.7054333950731926,0.9797991331992539
1.6561694096082575,0.8587998916878566
1.6561694096082575,0.9797991331992539
1.7607224549560618,1.0430172298408822
1.7098590628117911,1.0511863348783221
1.7098590628117911,1.0642361531461326
1.6561694096082575,1.0642361531461326
1.5947631448391266,1.0642361531461326
1.5947631448391266,1.0642361531461326
1.5947631448391266,1.0642361531461326
1.5947631448391266,1.2564450838748562
1.6561694096082575,1.311033963139738
1.7098590628117911,1.4968733437204749
1.7098590628117911,1.5801570787080748
1.7098590628117911,1.6403122758282578
1.7203399035910656,1.7337483586153637
2.375580754924445,1.7337483586153637
2.5534280426306304,1.941415988263615
2.5758547576963866,2.0677832210293814
2.6309979003366646,2.4156122429419407
2.6309979003366646,2.4156122429419407
2.6309979003366646,2.4156122429419407
2.6309979003366646,2.4156122429419407
2.7916473651099896,2.4156122429419407
2.8201647514844814,2.599581921347541
2.8201647514844814,2.783767339397959
2.9853764992809,2.783767339397959
3.14576136980086,2.949234487520887
2.9853764992809,2.949234487520887
2.9853764992809,3.170050626021125
2.9853764992809,3.197234104529246
2.9853764992809,3.170050626021125
3.0047858398432084,2.7357929942526655
2.9853764992809,2.6713839768163767
2.976276297827527,2.6713839768163767
2.4503151915086883,2.6034309797459354
2.392908914485412,2.574727270323358
2.392908914485412,2.574727270323358
2.392908914485412,2.574727270323358
2.392908914485412,2.574727270323358
2.3483865724708566,2.574727270323358
2.3344422149087154,2.574727270323358
2.3344422149087154,2.631651760927178
2.2390404376297903,2.449912354858523
2.2390404376297903,2.01975368712066
2.336889247960447,2.01975368712066
2.336889247960447,2.01975368712066
2.336889247960447,2.01975368712066
2.336889247960447,2.01975368712066
2.336889247960447,1.9676159948609238
2.336889247960447,1.8553377684215506
2.391463939768536,1.7145581083746615
2.391463939768536,1.6862043339970096
2.391463939768536,1.6862043339970096
2.0044928843186325,1.4961957884226653
1.993156640563912,1.4815282104517726
1.993156640563912,1.3327717192997466
1.993156640563912,0.9125972666250917
1.8402608987919258,0.9125972666250917
1.7881317185614878,0.9125972666250917
1.5776502919327788,0.8489112694957731
1.5776502919327788,0.8489112694957731
1.5776502919327788,0.8489112694957731
1.5776502919327788,0.8489112694957731
1.7881317185614878,0.8489112694957731
1.7881317185614878,0.9125972666250917
1.7928471425986554,0.9650482202314442
1.7928471425986554,1.0134206519101672
1.7928471425986554,1.062704474273049
1.7928471425986554,1.1362399526164293
2.0019604240825175,1.1362399526164293
2.067947927446524,1.296032795747779
2.067947927446524,1.3621578800734333
2.067947927446524,1.4559300005432474
2.067947927446524,1.5211788276971303
2.4004044831408486,1.9212302528219674
2.1461282332679,2.248267253878537
2.2514148966251204,2.4839536273862195
2.455817114851991,2.4839536273862195
2.290668784028767,2.1836747959206932
2.290668784028767,2.0380195851587772
2.2546518078590925,1.3679353049009422
2.2546518078590925,1.3679353049009422
2.2546518078590925,1.3679353049009422
2.2546518078590925,1.3679353049009422
2.2546518078590925,1.3679353049009422
2.2546518078590925,1.3679353049009422
2.2546518078590925,1.3679353049009422
2.2546518078590925,1.3679353049009422
2.193729455468883,1.3679353049009422
2.1424540883706173,2.11636564115877
2.1424540883706173,1.9673912702182463
2.1424540883706173,2.11636564115877
2.1424540883706173,2.11636564115877
2.1424540883706173,2.11636564115877
2.1424540883706173,2.307674101247082
2.1424540883706173,2.307674101247082
2.1424540883706173,2.307674101247082
2.3941917282936704,2.307674101247082
2.4679099698062688,2.307674101247082
2.9810770102576534,2.307674101247082
2.9810770102576534,2.307674101247082
3.188368279830437,2.5595335331461815
2.9810770102576534,2.8916625876379713
2.0673026786594066,3.2524324303485765
1.9610601469472484,3.5111108814952483
1.7063811290713935,3.881515576464424
1.3312303681043904,3.9275386930642333
1.1592238692983965,4.346651772903087
1.031466580494373,4.5707090021055565
0.6603237838397421,5.044905678294499
0.5226149175963031,5.378551845651116
0.5226149175963031,5.254185904462874
0.5226149175963031,4.903714133550347
0.5226149175963031,4.3418760250393715
0.5226149175963031,3.4426622846233372
0.5226149175963031,2.5752690838577643
0.5226149175963031,1.9903815077978484
0.5148770368301205,1.9234676468966097
0.43809034560002447,1.9148165354310385
0.5148770368301205,1.9148165354310385
0.5479968756957478,1.3327845319438782
0.5864982070540071,1.155563822726862
0.5875945257203624,1.0809435742698301
0.6103648657928468,1.0809435742698301
0.64954431199449,1.0809435742698301
0.6655997516084745,1.0593494118001616
0.8500534495916766,1.039750489820059
1.0696628095637581,1.0042672405263473
1.0696628095637581,0.9631202539809425
1.1353131136990036,0.8922927414719478
1.30342335649698,0.8041264951568926
1.30342335649698,0.7954178398298957
1.7934366992952575,0.6334802831332209
1.9362581562502466,0.6141277072823298
1.9378164608065136,0.599762547891836
2.191207759344503,0.599762547891836
2.1310395159648516,0.599762547891836
1.9378164608065136,0.599762547891836
1.9378164608065136,0.5582562189778192
1.9378164608065136,0.5582562189778192
1.989927037102635,0.5435422105951091
2.0036831787234415,0.5435422105951091
2.0036831787234415,0.5435422105951091
1.989927037102635,0.5650092193219383
1.6901550352715855,0.599762547891836
1.679183177289437,0.6432446782605616
1.6481246439662827,0.6432446782605616
1.6481246439662827,0.6432446782605616
1.6028743290207714,0.7603952606547071
1.5026842764165642,0.8026752561697946
1.450040875552786,0.873775381030216
1.4489303732147554,0.907171804384306
1.295905576238222,0.9445798993580735
1.295905576238222,0.9445798993580735
1.295905576238222,0.9608378761345695
1.295905576238222,1.0198411341644975
1.295905576238222,1.0274006330208654
1.295905576238222,1.0318351631285376
1.295905576238222,1.1270011024801465
1.295905576238222,1.5015566739087398
0.8671311591136387,1.754510310360134
0.8671311591136387,2.0849685018259145
0.8671311591136387,2.5398244458044714
1.3636988202563392,3.6881815375146267
0.9165787512105911,5.001212748130933
0.9165787512105911,5.457793277901939
0.9165787512105911,5.471426670453959
0.9165787512105911,5.590493210414834
0.9165787512105911,5.595609537429952
0.9165787512105911,5.718258615501867
0.9165787512105911,5.8205236141110674
1.0685505965064181,5.852943913215548
1.1750626434483176,5.856023266537824
1.3112575450350143,5.873157028836804
1.4322570547312705,5.897556272267006
1.5351823107565092,5.873157028836804
1.5604368702473292,5.872618862799114
1.5991178106125215,5.863544874406097
1.6299831853252325,5.856023266537824
1.6299831853252325,5.799286150614281
1.6299831853252325,5.799286150614281
1.6299831853252325,5.799286150614281
1.6299831853252325,5.799286150614281
1.6299831853252325,5.776012423792754
1.6299831853252325,5.705828040642959
1.7926367158112329,5.589992052917177
1.7926367158112329,5.32899923052729
1.7926367158112329,4.633704851848058
1.7926367158112329,4.554927289209459
1.7317389074300449,4.554927289209459
1.5649745704280817,4.554927289209459
1.5649745704280817,4.554927289209459
1.5649745704280817,4.554927289209459
1.420799334845226,4.554927289209459
1.420799334845226,4.554927289209459
1.420799334845226,4.554927289209459
1.420799334845226,4.554927289209459
1.420799334845226,4.633704851848058
1.420799334845226,4.827580841728981
1.420799334845226,5.270998623917542
1.420799334845226,5.619551975989863
1.5915363728830403,5.681477110852338
1.6758530273326346,5.696988172484514
1.6925667673742801,5.739437207878415
1.6925667673742801,5.715221148419486
1.6925667673742801,5.696988172484514
1.6925667673742801,5.676298313408065
1.6925667673742801,5.64501235928151
1.5956246440532846,5.626821276122448
1.5915363728830403,5.486609470055187
1.5211956297053955,5.4214109141807185
1.5211956297053955,5.272972930869573
1.5211956297053955,5.262066222950337
1.5211956297053955,5.25525966816927
1.5211956297053955,5.25525966816927
1.6367535466691132,5.25525966816927
1.5440507820498786,5.158365559856435
1.5204857547297541,5.136977719035512
1.5204857547297541,5.127654861553134
1.5440507820498786,5.08098923055573
1.6367535466691132,5.08098923055573
1.6455335352674136,4.91711868598072
1.6455335352674136,4.91711868598072
1.6455335352674136,4.6088748964157205
1.6455335352674136,4.546553382236101
1.7636898589677714,4.540657044505317
1.8135615776563585,4.540657044505317
2.104445331266237,4.477923577627504
2.2983387370866906,4.366213061296862
2.159913989258523,4.366213061296862
2.159913989258523,4.366213061296862
2.3055625404717284,4.366213061296862
2.3444592056287226,4.366213061296862
2.3777494144076265,4.366213061296862
2.5395499385771254,4.366213061296862
2.5395499385771254,4.477923577627504
2.5395499385771254,4.609532670420011
2.3055625404717284,4.609532670420011
2.3055625404717284,4.617108097367946
2.159913989258523,4.679497902639522
1.7259930539736281,4.679497902639522
1.6758953023310856,4.679497902639522
1.6758953023310856,4.648440118600094
1.6758953023310856,4.648440118600094
1.6758953023310856,4.648440118600094
1.6177266637335943,4.798152294858686
1.6177266637335943,4.798152294858686
1.6106412422752754,4.798152294858686
1.6106412422752754,4.798152294858686
1.6177266637335943,4.798152294858686
1.6678435942384247,4.798152294858686
1.6678435942384247,4.8502424347040565
1.7340419594817496,4.728694072631453
1.7340419594817496,4.728694072631453
1.7340419594817496,4.728694072631453
2.043548507292242,4.728694072631453
2.388418725950474,4.728694072631453
2.388418725950474,4.697823576013881
2.3954217272193707,4.286512824541229
2.5295756598627714,3.7885521630027585
2.3954217272193707,3.326168716582332
2.3346504262937113,3.2022320984803936
2.3010384630532426,2.918655417375155
2.047652279178107,2.1194811498172292
2.047652279178107,1.689332345857068
2.047652279178107,1.2386330587731822
2.047652279178107,1.1971354590049696
2.047652279178107,1.1075450333692312
1.6777619381589095,1.1075450333692312
1.5452171121520786,1.07757597644688
1.5452171121520786,1.0365253347934849
1.5452171121520786,0.8771556580994511
1.759899471893577,0.822601470947521
1.759899471893577,0.811886173693053
1.759899471893577,0.811886173693053
1.5452171121520786,0.811886173693053
1.5452171121520786,0.811886173693053
1.5452171121520786,0.811886173693053
1.5452171121520786,0.7901159200872077
1.759899471893577,0.7901159200872077
1.759899471893577,0.7901159200872077
1.4638393058300805,0.7901159200872077
1.4638393058300805,0.8509326427440838
1.4638393058300805,0.8486751717256307
1.4638393058300805,0.8486751717256307
1.7388880295515603,0.8486751717256307
1.7388880295515603,0.8132825016100175
1.7388880295515603,0.7529007578065094
1.3244851265021094,0.7396756543445412
1.3244851265021094,0.7396756543445412
1.3244851265021094,0.7396756543445412
1.4020635469757903,0.7396756543445412
1.4127268615248723,0.7396756543445412
1.4127268615248723,0.7396756543445412
1.4127268615248723,0.7396756543445412
1.4127268615248723,0.8381924572617218
1.4127268615248723,0.8381924572617218
1.4866422791672664,0.9507404451248613
1.5277732783343518,1.0042271479529568
1.8393578935615138,1.1817401276787567
1.8565141930369056,1.1817401276787567
1.8565141930369056,1.1817401276787567
2.0290604340317637,1.1817401276787567
2.070763983657085,1.1817401276787567
2.2638674041916063,1.1817401276787567
2.2638674041916063,1.2870515311037185
2.2638674041916063,1.3419677303524513
2.2638674041916063,1.4157106537775226
2.2638674041916063,1.4564381625102074
2.2638674041916063,1.6336278606067522
2.3434855480511962,1.6336278606067522
2.3434855480511962,1.6336278606067522
2.4201558525828935,1.666907584900629
2.4201558525828935,1.7024529358700171
2.3249080142109686,1.7024529358700171
2.238399854232424,1.7024529358700171
1.9924398088802573,1.7024529358700171
1.9839168621894026,1.7024529358700171
1.4469701794996677,1.7024529358700171
1.4469701794996677,1.5575240950147544
1.4469701794996677,1.5575240950147544
1.4469701794996677,1.5575240950147544
1.4469701794996677,1.5575240950147544
1.4469701794996677,1.5575240950147544
1.4469701794996677,1.5575240950147544
1.4469701794996677,1.5575240950147544
1.6246391755902212,1.5575240950147544
2.5108484563465976,1.5575240950147544
2.238025190580165,1.655832149658211
2.158269800543712,1.5575240950147544
2.2880243733767807,1.4049883691220066
1.6082596342925906,1.4049883691220066
1.6082596342925906,1.4049883691220066
1.6082596342925906,1.4049883691220066
1.6082596342925906,1.4049883691220066
1.6082596342925906,1.4049883691220066
1.6082596342925906,1.4049883691220066
1.6082596342925906,1.4049883691220066
1.6082596342925906,1.5168519784867085
1.7998528295154765,1.5168519784867085
1.7998528295154765,1.6812639217476706
1.9820752728593394,1.8453905518443179
2.1795213382905834,1.8453905518443179
2.1795213382905834,1.8453905518443179
2.1596750557947337,1.8453905518443179
2.100118955174961,1.8453905518443179
2.100118955174961,1.8453905518443179
2.100118955174961,2.052813897092283
2.100118955174961,1.8453905518443179
2.1596750557947337,1.8253393586176296
2.1795213382905834,1.7704573267304682
2.1795213382905834,1.8253393586176296
2.13977917470166,1.7091338782319196
2.100118955174961,1.7842099866229861
1.8724379058798264,1.7091338782319196
1.6976723774704923,1.7091338782319196
1.8724379058798264,1.7091338782319196
1.8724379058798264,1.7091338782319196
1.8724379058798264,1.7091338782319196
1.8724379058798264,1.7091338782319196
1.8724379058798264,1.7842099866229861
1.8724379058798264,1.7842099866229861
1.8724379058798264,1.7842099866229861
2.3133549603573313,1.8330444423282135
2.3133549603573313,1.8345346017867992
2.3133549603573313,1.8559982540199236
2.421753952156733,1.8330444423282135
2.421753952156733,1.724748125322418
2.3133549603573313,1.6691849693392982
2.2279683073052383,1.6691849693392982
2.2279683073052383,1.6691849693392982
2.2279683073052383,1.6691849693392982
2.2279683073052383,1.6691849693392982
2.2279683073052383,1.6691849693392982
2.2279683073052383,1.6691849693392982
2.316650777986215,1.6691849693392982
2.5743360098058625,1.6691849693392982
2.6451131263485483,2.2941573387054635
2.6451131263485483,2.7054409641513306
2.68761034102166,2.816625068645762
2.8128096571390375,2.8225632407543273
2.849378569768127,2.874082517703534
2.849378569768127,3.033331337625088
2.849378569768127,3.033331337625088
3.072428905225722,3.033331337625088
3.1423421357432644,3.033331337625088
3.2060535759643445,3.033331337625088
3.1423421357432644,3.033331337625088
3.1423421357432644,3.033331337625088
3.1423421357432644,3.033331337625088
3.1423421357432644,2.9061604716431595
3.1857077186647733,2.9061604716431595
3.1365687879190585,2.9061604716431595
3.1365687879190585,2.9061604716431595
3.070261490997661,2.9061604716431595
2.843310138484521,2.9061604716431595
2.633839612187561,2.9061604716431595
2.2912686509032634,2.9061604716431595
2.233218556335145,2.9061604716431595
2.000236076034161,2.9061604716431595
1.8426195437832562,2.9061604716431595
1.7440944390994688,3.1586848844148956
1.72880265838663,4.002873978971415
1.7179950466186482,4.465470712213714
1.435019812370528,4.8015629907576685
1.3280657842212202,5.265358485104604
1.2857980565002125,5.321317982701255
1.0039716265583813,5.375960917961082
0.8517131126138949,5.418561393102176
0.8517131126138949,5.363496376054307
0.8517131126138949,5.30517748634816
0.8517131126138949,4.681701194701401
0.8517131126138949,4.056979134538536
0.8517131126138949,3.1670363061340887
0.8517131126138949,2.21846259201682
0.8157473806466999,1.9673488718823344
0.6950875347932307,1.9417843600776408
0.6950875347932307,1.9417843600776408
0.8517131126138949,1.6874425233337378
0.8566135485884389,1.4797872754933825
0.8566135485884389,1.4745392246975073
0.8566135485884389,1.1601805045514944
0.8566135485884389,1.1601805045514944
0.8566135485884389,1.1601805045514944
0.8566135485884389,1.1170097414347138
0.8566135485884389,1.004463564547046
0.8566135485884389,0.8740961199257877
0.860850032667274,0.8740961199257877
1.2846621318673395,0.8300910840891212
1.2846621318673395,0.8195231578171831
1.820648817610624,0.7005141295044566
1.8409775622178097,0.6508444314418802
2.038447617602495,0.6257169534486624
2.1227947110618133,0.5871035913801292
2.0842834975160827,0.5612575161139275
2.0696569652868266,0.5612575161139275
2.0553503511001687,0.5612575161139275
2.038447617602495,0.5512726080171126
2.0135633547151426,0.5512726080171126
2.00603644640908,0.5512726080171126
2.0052418346738623,0.5512726080171126
2.0052418346738623,0.5512726080171126
1.9701628559739959,0.5922362463688045
1.703449040651895,0.5999324914387922
1.6577791123516838,0.6289941700191207
1.4979491649380754,0.6793325114750463
1.4716056699854632,0.7510159118294326
1.4138724267279295,0.7753276781096766
1.29940259108803,0.9049417710676178
1.2526734136323825,1.028788071165616
1.2051309781563257,1.1020156451366707
1.2051309781563257,1.1530415024153011
1.2051309781563257,1.1670125297769454
1.0684815743618679,1.213481087522455
0.9867974440162368,1.213481087522455
0.8568468761439635,1.239764899264053
0.8344806236344172,1.2451800430444655
0.8344806236344172,1.4899005341777887
0.8344806236344172,1.7044467466068662
0.8344806236344172,2.2157377489542758
0.9364409794945453,2.6461619563069085
0.9364409794945453,3.455901950744023
0.9364409794945453,4.990625798538299
0.9364409794945453,5.534374829662568
0.9364409794945453,5.707866581358242
1.01947659007182,5.8445736670228765
1.0654613474131567,5.846947892727554
1.096412377019749,5.881304906047054
1.2683452194671099,5.871517352067126
1.4432354566731485,5.866808995805038
1.5356925464206348,5.866808995805038
1.5697045101728953,5.8625406784025484
1.6378213968466655,5.846947892727554
1.6383999750310676,5.833139065870116
1.6378213968466655,5.833139065870116
1.6378213968466655,5.7833220668805945
1.6461835541930299,5.7833220668805945
1.6462387387099684,5.720846736854145
1.7940200075783648,5.6778859205352346
1.7940200075783648,5.6778859205352346
1.8138949396605963,5.6778859205352346
1.8138949396605963,5.661262880669815
1.5928180029058723,5.661262880669815
1.5526161897261166,5.609554354203478
1.3645328556921739,5.600234019182094
1.3645328556921739,5.600234019182094
1.098013558245499,5.600234019182094
1.098013558245499,5.600234019182094
1.098013558245499,5.609554354203478
1.098013558245499,5.609554354203478
1.098013558245499,5.600234019182094
1.098013558245499,5.600234019182094
1.0587737697701722,5.600234019182094
1.0587737697701722,5.616732144322683
1.0717389505864898,5.616732144322683
1.4539428836208337,5.659170712424572
1.5436801894652838,5.680810741175558
1.6087532952290609,5.46683928760894
1.6593500383245052,4.369161300444013
1.6593500383245052,3.187300174717791
1.6593500383245052,2.2008154841080083
1.5185254391303626,2.1322202074132117
1.5390398553225255,1.7552860422114585
1.5436801894652838,1.6013711579794603
1.7122729313263787,1.6013711579794603
1.7122729313263787,1.6013711579794603
1.7122729313263787,1.6013711579794603
1.7122729313263787,1.6013711579794603
1.572250701528491,1.6013711579794603
1.572250701528491,1.6013711579794603
1.572250701528491,1.6013711579794603
1.572250701528491,2.0101407069030413
1.572250701528491,2.0101407069030413
1.6153959540529348,2.7213216048523003
1.7122729313263787,3.1924965221426036
1.7132709746748118,3.5722514523727757
1.7132709746748118,3.8923876828946913
1.7132709746748118,3.8923876828946913
1.7132709746748118,3.8923876828946913
1.7588894125787398,3.8923876828946913
1.7588894125787398,3.8923876828946913
1.6153959540529348,4.166206951192539
1.5979568109593165,4.369128747756138
1.5979568109593165,4.369128747756138
1.5979568109593165,4.369128747756138
1.5979568109593165,4.369128747756138
1.5979568109593165,4.220700598022004
1.5979568109593165,4.17087781892302
1.5979568109593165,3.99000395462763
1.5979568109593165,3.99000395462763
1.5979568109593165,3.99000395462763
1.5990456474196082,3.99000395462763
2.167252850940085,3.99000395462763
2.314289721106813,3.99000395462763
2.3623318665129123,3.99000395462763
2.5731636373751465,4.17087781892302
2.3623318665129123,4.210257623261186
2.305164744650093,4.49695779101001
2.20114457909878,4.680144124519197
2.20114457909878,4.9885213478550945
2.0740486777117733,5.072105039300101
1.7260196203885794,5.167737499206993
1.7260196203885794,5.212149300787551
1.7260196203885794,5.167737499206993
1.7260196203885794,5.0843763895656835
1.7260196203885794,5.030592908838187
1.7260196203885794,3.9643772421743693
1.7260196203885794,2.6150904379267508
1.7260196203885794,2.5168520240919183
1.7260196203885794,2.4542225409290035
1.8274992003637611,1.915251006513192
1.8755374078251932,1.6016912614886951
2.1017122664017958,1.423864471154807
2.1017122664017958,1.3318798694727563
2.1017122664017958,1.2155116064184566
1.9470527716214483,1.1099648957886874
1.8755374078251932,1.1099648957886874
1.8169023126934434,1.1099648957886874
1.8169023126934434,0.9834146676514518
1.8169023126934434,0.9834146676514518
1.8169023126934434,0.9834146676514518
1.858414675220553,0.9834146676514518
1.8169023126934434,0.9343908129299762
1.8169023126934434,0.9174315763919886
1.8169023126934434,0.810704909141455
1.8169023126934434,0.810704909141455
1.858414675220553,0.810704909141455
1.858414675220553,0.810704909141455
1.858414675220553,0.810704909141455
1.599779505174225,0.810704909141455
1.599779505174225,0.810704909141455
1.599779505174225,0.810704909141455
1.599779505174225,0.810704909141455
1.6984348278858998,0.810704909141455
1.6984348278858998,0.8404190866141891
1.599779505174225,0.9595370700298066
1.351223406352425,1.1141474682177723
1.3305235030393705,1.137556669706807
1.351223406352425,1.1546383837112795
1.4965291386799093,1.1546383837112795
1.5210247948377829,1.1546383837112795
1.4965291386799093,1.1546383837112795
1.4965291386799093,1.1546383837112795
1.4965291386799093,1.1546383837112795
1.4965291386799093,1.1546383837112795
1.4965291386799093,1.1546383837112795
1.5210247948377829,1.1546383837112795
1.6224867202586941,1.1716167166248055
1.6511746087768602,1.1716167166248055
1.8091458761111097,1.3044707618574576
2.0767781057589865,1.539763337253258
2.4974807367715637,1.5939272616019229
2.361959572159635,1.5939272616019229
2.361959572159635,1.5939272616019229
2.3949612930999824,1.135128578275475
2.283310432423352,1.1024885853680302
2.283310432423352,1.1024885853680302
2.283310432423352,1.1024885853680302
2.283310432423352,1.1024885853680302
2.283310432423352,1.1024885853680302
2.283310432423352,1.1024885853680302
2.283310432423352,1.1024885853680302
2.2285543749592733,1.135128578275475
2.2285543749592733,1.2137968792016132
2.065087328672707,1.2934460184788619
1.7965787757114764,1.4404293836885524
1.7965787757114764,1.4404293836885524
1.7965787757114764,2.0042214933344447
1.7965787757114764,2.01726073063046
1.7965787757114764,2.0939249514493063
1.7965787757114764,2.0939249514493063
1.7965787757114764,2.0939249514493063
1.7965787757114764,2.0939249514493063
1.8567662058333265,2.0939249514493063
2.121803617747941,2.0939249514493063
2.3189827564026655,2.1903563633978065
2.3189827564026655,2.1903563633978065
2.4945926081883285,1.9797461847062234
2.4945926081883285,1.714152714956369
2.4945926081883285,1.5645238347320038
2.4135417969675976,1.4488288142039454
2.3189827564026655,1.4277862045157712
2.255173588595618,1.3975515836809602
1.9566939810006359,1.347056227786785
1.9566939810006359,1.295335824460738
1.9566939810006359,1.295335824460738
1.9566939810006359,1.295335824460738
1.9566939810006359,1.295335824460738
1.9566939810006359,1.295335824460738
1.9566939810006359,1.295335824460738
1.9566939810006359,1.3975515836809602
1.9566939810006359,1.4277862045157712
1.9566939810006359,1.5871055713503255
1.9537013885002479,1.649101635045931
2.1803511454113833,1.649101635045931
1.9537013885002479,1.7116915888565487
1.8311121150733969,1.649101635045931
1.8311121150733969,1.649101635045931
1.8311121150733969,1.649101635045931
1.8311121150733969,1.649101635045931
1.8311121150733969,1.649101635045931
1.8311121150733969,1.649101635045931
1.8311121150733969,1.8441150632751204
1.8311121150733969,2.003759985679767
1.8311121150733969,2.003759985679767
1.8311121150733969,2.095670371795853
1.8311121150733969,2.003759985679767
1.6669636078796646,2.003759985679767
1.4569486255515836,1.7826019921218892
1.4569486255515836,1.6593461996039036
1.4569486255515836,1.6593461996039036
1.4569486255515836,1.6593461996039036
1.4569486255515836,1.6593461996039036
1.4569486255515836,1.6593461996039036
1.4569486255515836,1.6593461996039036
1.4569486255515836,1.6593461996039036
1.4711049614194445,1.6593461996039036
2.434587226157518,1.6593461996039036
2.369135615095071,2.2761526863448744
2.434587226157518,2.8702742373663725
2.6205902181761176,3.551360453053768
2.445977956974203,3.3778140550621183
2.3967285793286806,2.847249351979612
2.369135615095071,2.620092082172279
2.290304906673638,2.178932231046516
2.1369224676521426,1.9937623746253266
2.1369224676521426,1.9937623746253266
2.1369224676521426,1.9937623746253266
2.1369224676521426,1.9937623746253266
2.1369224676521426,1.9937623746253266
2.1369224676521426,1.9937623746253266
2.1369224676521426,1.9937623746253266
2.1369224676521426,1.9937623746253266
2.293419950541574,2.178932231046516
2.3301481812708404,2.3270132460991366
2.582151987291631,2.6791419415931217
2.582151987291631,2.9238708622835974
2.6178435024197215,3.146017892367546
2.6178435024197215,3.146017892367546
2.523965061532002,3.146017892367546
2.5483203840851547,3.146017892367546
2.5483203840851547,3.146017892367546
2.523965061532002,3.146017892367546
2.523965061532002,3.334336708072034
2.4307011524048607,3.7549565662889646
2.4307011524048607,3.811855802108798
2.30444096208096,3.890059991605231
2.30444096208096,3.890059991605231
2.30444096208096,3.890059991605231
2.2508942493487325,4.086715142570109
2.2183947940842113,4.34350558523023
1.7118647085846623,4.684722715407627
1.408209501152594,4.700726083463681
1.3139450623700104,4.737231826321931
0.8064927871681629,5.067670740688862
0.7577715718861215,5.258628957890695
0.1522636491662386,5.258628957890695
0.1515006808493394,5.08577555852177
0.1515006808493394,4.378991809445416
0.1515006808493394,3.751829062574499
0.1515006808493394,2.9788784183201544
0.1515006808493394,2.2600900096544247
0.1515006808493394,2.164602715953119
0.1515006808493394,2.1167624040235675
0.1515006808493394,2.1167624040235675
0.19474517278250153,1.4087286689063503
0.2338717524395801,1.4087286689063503
0.23737124028027626,1.3052163569712223
0.2429911074152444,1.2527802489160278
0.25800991117027633,1.2527802489160278
0.29533096428508826,1.2527802489160278
1.3518139948766938,1.2527802489160278
1.3518139948766938,1.2652798861707166
1.3593571135711506,1.2430802883217371
1.3704667138760205,1.0500218727571449
1.4109701623019952,1.0436817817441864
1.4109701623019952,1.0436817817441864
1.4109701623019952,0.8323741784066717
1.6088309657563784,0.830948456890199
1.9503080266723656,0.8262456736054553
1.9503080266723656,0.7304092215233803
1.9503080266723656,0.7109942261333972
2.1772954209438837,0.694704116027346
2.188777399159814,0.5960892759348579
2.1772954209438837,0.5960892759348579
2.098251344618986,0.5960892759348579
1.9967352240975285,0.5960892759348579
1.9503080266723656,0.5960892759348579
1.8935883172243893,0.5960892759348579
1.6822750808220737,0.5960892759348579
1.5856740542587786,0.5960892759348579
1.5767971315891396,0.7731365001078301
1.5506584357393138,0.830036088519616
1.5086734348898518,0.8593597091518466
1.339917438196399,0.9081502401724282
1.280290474225579,0.9527135377237147
1.280290474225579,0.9626806104423556
1.280290474225579,0.9673829225697739
1.280290474225579,1.0915298943567917
1.280290474225579,1.1230054752739873
1.075026141958028,1.1230054752739873
0.9463800413887088,1.3574691208735328
0.8974782290943131,1.4821299996245596
0.7602655503074087,1.6054923556019933
0.8854300345218128,1.6054923556019933
0.8854300345218128,2.1136862272958554
0.8854300345218128,2.655066053231409
0.8854300345218128,3.7058176135879584
0.8854300345218128,4.909854448396145
0.8854300345218128,5.5801061894060675
0.8854300345218128,5.737434153778714
1.219702118260986,5.822553315234574
1.3728776374724228,5.833819413451706
1.39552093501895,5.833819413451706
1.4076441956707328,5.840336334866194
1.4760342541151654,5.838364759472303
1.4760342541151654,5.838364759472303
1.5862055865917453,5.827514004338579
1.725704210071007,5.797399299080658
1.8254976475648017,5.797399299080658
1.8409221999445315,5.792331030641628
1.8409221999445315,5.792331030641628
1.8409221999445315,5.6819457883918485
1.7911819320050546,5.393526494921673
1.7911819320050546,5.154274417643267
1.7911819320050546,4.87272304201562
1.7911819320050546,4.585012179473785
1.739882842281705,4.585012179473785
1.6485385848784075,4.585012179473785
1.5285075105113861,4.585012179473785
1.5285075105113861,4.585012179473785
1.3957713728041317,4.585012179473785
1.3957713728041317,4.585012179473785
1.3957713728041317,4.585012179473785
1.3957713728041317,4.585012179473785
1.3957713728041317,4.8575345653348885
1.3957713728041317,5.139441236876777
1.3957713728041317,5.411564238101351
1.4025420111589693,5.6550930501130825
1.4732136786202152,5.660028977325596
1.4732136786202152,5.660028977325596
1.644988573456682,5.6550930501130825
1.7541864479038705,5.649016657510031
1.8472103948318368,5.586538396062028
1.8472103948318368,5.516772843673834
1.8472103948318368,5.516772843673834
1.8461029328221892,5.258858243336674
1.8461029328221892,5.151193898826769
1.8461029328221892,5.145884139112413
1.7049318393279944,5.145884139112413
1.719822941702263,5.145884139112413
1.6869705741954881,5.145884139112413
1.560400653684867,5.135164806586562
1.560400653684867,5.145884139112413
1.560400653684867,5.135164806586562
1.5918519205476471,5.074433656474534
1.5918519205476471,5.074433656474534
1.5918519205476471,4.988583723351217
1.5918519205476471,4.948976693354718
1.5918519205476471,4.5474690145924255
1.5918519205476471,4.5474690145924255
1.8040654040272366,4.5474690145924255
1.8040654040272366,4.5474690145924255
2.2344004933226715,4.5474690145924255
1.8657005839760679,4.5474690145924255
1.8657005839760679,4.5474690145924255
1.8657005839760679,4.5474690145924255
1.8040654040272366,4.5474690145924255
1.573360551904524,4.550843990137519
1.573360551904524,5.027458210432737
1.4711365919813624,5.027458210432737
1.4711365919813624,5.029840966654102
1.4711365919813624,4.894839289471089
1.5608512018134437,4.877169699448364
1.573360551904524,4.877169699448364
1.573360551904524,4.661495522627301
1.573360551904524,4.661495522627301
1.573360551904524,4.661495522627301
2.0856135312729456,4.661495522627301
1.9564633155328592,4.661495522627301
2.0856135312729456,4.661495522627301
2.1564244238946717,4.661495522627301
1.8123752810909608,4.661495522627301
1.8123752810909608,4.877169699448364
1.8123752810909608,4.912518264698316
1.7718002967794901,4.928117202547443
1.4802507997121526,5.003026356982393
1.4435942771634973,5.357606940239742
1.4435942771634973,5.381709023860384
1.4435942771634973,5.402612132807829
1.4435942771634973,5.420282050149092
1.4435942771634973,5.540665972424967
1.3831651332690906,5.64499586654562
1.3087701665718887,5.631150785404414
1.3087701665718887,5.579806638519444
1.3087701665718887,5.56951047303463
1.3087701665718887,5.540665972424967
1.3322941858495794,5.535838452648564
1.3322941858495794,5.535838452648564
1.3087701665718887,5.420560117780414
1.1267864726485528,5.3521523489372065
1.0445997031304113,4.899162899184253
1.0445997031304113,4.112733580421284
1.0445997031304113,3.0355640615600707
1.0445997031304113,2.417431659577613
1.0445997031304113,1.6518914285275814
1.0445997031304113,1.2154742509255376
1.0445997031304113,0.9352033211939164
1.0445997031304113,0.9352033211939164
1.3039298893435944,0.9352033211939164
1.3039298893435944,0.9352033211939164
1.3248348315938245,0.7814993594066924
1.3639097517445182,0.7477061288611677
1.7570742783724431,0.717663203926499
1.7570742783724431,0.6423360702605099
1.731893024871438,0.6423360702605099
1.3248348315938245,0.6934332426513762
1.3039298893435944,0.717663203926499
1.3039298893435944,0.7230056529728156
1.3039298893435944,0.7230056529728156
1.5783666993258418,0.7230056529728156
1.422024857443973,0.7230056529728156
1.422024857443973,0.7230056529728156
1.368331645651413,0.7466652015061174
1.368331645651413,0.8107376519818292
1.368331645651413,0.8107376519818292
1.422024857443973,0.8107376519818292
1.422024857443973,0.869780046420966
1.422024857443973,0.869780046420966
1.422024857443973,0.869780046420966
1.422024857443973,0.869780046420966
1.422024857443973,0.869780046420966
1.656007354356023,0.869780046420966
1.7717263094872926,0.869780046420966
1.860070602662959,0.8944271910004314
1.921854439600203,0.8944271910004314
1.921854439600203,0.8972975508034107
1.921854439600203,0.9409282551555416
1.860070602662959,1.1476051815528288
1.860070602662959,1.2376760658716244
1.7717263094872926,1.3534501245347614
1.7717263094872926,1.3847690602346883
1.7717263094872926,1.3898098192179857
1.7717263094872926,1.5191090506252012
1.860070602662959,1.610681413858262
1.927632097785175,1.7240369614654967
1.9437203368298577,1.9524093561667253
1.9437203368298577,1.9524093561667253
1.9437203368298577,1.9449049355609482
2.2446532508351473,1.9449049355609482
2.2446532508351473,1.9449049355609482
2.2446532508351473,1.9449049355609482
2.2034774200816725,1.9449049355609482
1.9185541560209038,1.7504696829490203
1.9185541560209038,1.7504696829490203
1.9185541560209038,1.724036961466764
1.9185541560209038,1.724036961466764
1.9185541560209038,1.724036961466764
1.9185541560209038,1.724036961466764
1.9185541560209038,1.724036961466764
1.9185541560209038,1.724036961466764
1.7212556098679355,1.724036961466764
1.9185541560209038,1.724036961466764
2.0710144688315255,1.724036961466764
2.303613920018084,2.208971667844171
2.303613920018084,1.738143647534866
2.303613920018084,1.738143647534866
2.303613920018084,1.738143647534866
2.1557337841140876,1.738143647534866
2.1455511924910375,1.738143647534866
1.945384966062748,1.738143647534866
1.945384966062748,1.738143647534866
2.1557337841140876,1.738143647534866
2.1557337841140876,1.738143647534866
2.1557337841140876,1.738143647534866
2.1557337841140876,1.738143647534866
2.290162370445437,1.8608267783870223
2.290162370445437,1.9956360967464724
2.290162370445437,2.0604195162037953
2.5793494688483865,2.051538456856141
2.290162370445437,2.104927320546318
2.3111143027738072,2.104927320546318
2.1797030188833504,1.9797461847058422
2.075061012518167,1.9580471313350707
2.075061012518167,1.7724668440615885
2.075061012518167,1.7724668440615885
2.0692839637023006,1.7724668440615885
2.0023084336574946,1.7724668440615885
1.70883120947073,1.7724668440615885
1.6613526846066398,1.7334800887407709
1.6613526846066398,1.4717674729134247
1.6613526846066398,1.4372786552180201
1.6613526846066398,1.4372786552180201
1.6613526846066398,1.4717674729134247
1.6613526846066398,1.7045856478619654
1.6613526846066398,1.7045856478619654
1.6613526846066398,1.7045856478619654
1.821673196042454,1.7045856478619654
1.991964911307909,1.7045856478619654
2.3364488286009903,1.7045856478619654
2.4710422021780176,1.8838977316542398
2.4789161460145737,1.943500466701081
2.4789161460145737,2.002866548226393
2.4789161460145737,1.933196370071013
2.4710422021780176,1.933196370071013
2.4710422021780176,1.933196370071013
2.328395780930002,1.933196370071013
2.328395780930002,1.933196370071013
2.4710422021780176,1.933196370071013
2.4789161460145737,1.933196370071013
2.328395780930002,1.933196370071013
2.328395780930002,1.933196370071013
2.3986681999040864,2.017147961104001
2.338546555300045,2.140179032987084
2.338546555300045,2.1666915597127407
2.3986681999040864,2.244509155286852
2.3986681999040864,2.244509155286852
2.4023956423943034,2.398922018540876
2.4023956423943034,2.478290529272484
2.4023956423943034,2.487387714067816
2.4023956423943034,2.487387714067816
2.3986681999040864,2.740429350177843
2.3986681999040864,2.740429350177843
2.4023956423943034,3.006122878171854
2.93556203578815,3.006122878171854
3.0762733826182633,3.006122878171854
3.0762733826182633,2.748707317501343
2.93556203578815,2.748707317501343
2.93556203578815,2.748707317501343
2.847764690628102,2.748707317501343
2.5257831183769284,2.748707317501343
2.5257831183769284,2.953563906835212
2.612632386545871,2.953563906835212
2.5257831183769284,2.953563906835212
2.49441991021478,2.953563906835212
2.469202794966681,2.9601702397620633
2.469202794966681,3.027758377779907
2.3974583046055633,3.9483775904865475
1.5349380107976314,4.204550696112387
1.299312141057821,4.5245654891577916
0.8992604276313229,4.724748930659433
0.7793499443839944,5.14297541204876
0.7793499443839944,5.184395653123929
0.7793499443839944,5.181440278191422
0.7793499443839944,4.569087667855594
0.7793499443839944,3.973212166451482
0.7793499443839944,3.251541820017504
0.7793499443839944,2.4256302307635433
0.7793499443839944,2.124424558143444
0.5950629824426683,2.124424558143444
0.6724075727789693,2.087037523982136
0.8274501867900843,1.8326704391604036
0.8274501867900843,1.5783537016850382
0.6924906679526617,1.5450406126691634
0.6924906679526617,1.4424252198630259
0.6924906679526617,0.9768252059266134
0.6924906679526617,0.8482112900011657
0.6924906679526617,0.8482112900011657
0.6924906679526617,0.8482112900011657
0.8769741407328377,0.8482112900011657
1.148492013962281,0.7590675938925249
1.5219644128611163,0.717169926468834
1.5219644128611163,0.7118301666574651
1.7470047700790023,0.6130282580863574
1.915784638568889,0.6130282580863574
1.915784638568889,0.6130282580863574
2.050282225823839,0.6130282580863574
2.050282225823839,0.6051935260178999
2.050282225823839,0.5319238212713635
2.0322808415687152,0.5319238212713635
2.0322808415687152,0.5319238212713635
2.0090083620839345,0.5319238212713635
1.9004961083648126,0.6051935260178999
1.8868514743885212,0.6197083663191674
1.767358890577192,0.7005742813986799
1.5462343098551692,0.7005742813986799
1.544215809433186,0.7005742813986799
1.5010331623469038,0.7781772036368504
1.4538260435737957,0.8770778237100573
1.3633303177950151,0.9298258335216085
1.3630106641206876,0.9537080548494927
1.30291762260288,0.9957739744552706
1.30291762260288,1.0173667026018762
1.30291762260288,1.0908806414077943
0.7080894040152147,1.1435665668294066
0.6676450153143335,1.157989327687816
0.6676450153143335,1.242753771043545
0.6676450153143335,1.4282851875825395
0.6676450153143335,1.7621605232617457
0.6710315809913102,2.055132061040104
0.796780569325516,2.2384317245358782
0.8282014394109432,2.603169583599948
0.8282014394109432,4.409173191300801
0.8282014394109432,5.485461464663614
0.8282014394109432,5.677805612493833
0.9362772098434841,5.812219388653079
1.1170287600008988,5.83488096399411
1.3372680788538462,5.859702841501738
1.5249734589223696,5.867580774064385
1.5485154666533134,5.859702841501738
1.614632220583288,5.83488096399411
1.6743797368085898,5.819557037469054
1.6389685135918735,5.809864425196002
1.6389685135918735,5.809864425196002
1.6201058899547112,5.706977171980044
1.6201058899547112,5.659895694146321
1.6201058899547112,5.6581199630139976
1.6389685135918735,5.603049632745713
1.6886989449060599,5.536439463801516
1.6389685135918735,5.536439463801516
1.6389685135918735,5.5003835209102885
1.6389685135918735,5.497468051230216
1.2300254788521352,5.492949493852771
1.1214800093040385,5.492949493852771
1.1214800093040385,5.492949493852771
0.9771178043866939,5.492949493852771
0.9771178043866939,5.492949493852771
0.9771178043866939,5.492949493852771
0.9771178043866939,5.492949493852771
0.9771178043866939,5.4231705262084
0.9771178043866939,5.4231705262084
0.9771178043866939,5.420482960528951
0.9771178043866939,5.420482960528951
1.0688968850777862,5.420482960528951
1.5522085858674197,5.420482960528951
1.6250880074473657,5.418639593046037
1.798809405834041,5.418639593046037
1.9730683392372124,5.353811641542192
1.9730683392372124,5.28489369765968
1.9730683392372124,5.006545826229476
1.9730683392372124,5.006545826229476
1.9730683392372124,5.006545826229476
1.9730683392372124,5.006545826229476
1.6648321670306105,5.006545826229476
1.6648321670306105,5.006545826229476
1.6648321670306105,5.006545826229476
1.6648321670306105,5.006545826229476
1.6648321670306105,5.006545826229476
1.6648321670306105,5.22496735038564
1.631128573963495,5.293276746635337
1.631128573963495,5.22496735038564
1.631128573963495,5.22496735038564
1.6460241078882683,5.22496735038564
1.6460241078882683,5.188492715083969
1.767705485796022,5.188492715083969
1.767705485796022,5.188492715083969
1.767705485796022,5.188492715083969
1.767705485796022,5.188492715083969
1.806178855231386,5.188492715083969
1.806178855231386,5.188492715083969
1.8428303963920385,5.188492715083969
1.923690002375501,5.200814854084498
1.923690002375501,5.290358175355674
2.0000271720655154,5.3228977659653935
1.9724856135866666,5.350454014430201
1.9724856135866666,5.3505256847663825
1.8528438751672345,5.368103258396375
1.8346914105672971,5.431435582539193
1.4389276675260096,5.441549416589198
1.4389276675260096,5.467235188045305
1.4389276675260096,5.462767910110864
1.4389276675260096,5.470767136194655
1.4389276675260096,5.516488856841819
1.4389276675260096,5.592161960953841
1.4389276675260096,5.597957595006028
1.4389276675260096,5.597957595006028
1.4389276675260096,5.592161960953841
1.4389276675260096,5.592161960953841
1.4389276675260096,5.592161960953841
1.4513177144429361,5.592161960953841
1.4513177144429361,5.530363151034432
1.4513177144429361,5.530363151034432
1.4513177144429361,5.530363151034432
1.4513177144429361,5.521881744993693
1.4513177144429361,5.4546912506233065
1.4513177144429361,4.937805311911684
1.4513177144429361,4.547440628269488
1.8277300749900824,4.296557462703389
2.079101647499147,4.17174861724249
2.266974672795899,4.106002045087141
2.49038088700464,3.6663674236091377
2.6174690887074985,3.1665891872265646
2.617537996595328,2.6785567608195486
2.617537996595328,2.5439367968846045
2.567155813048423,2.4338478687021294
2.617537996595328,1.8624637076899027
2.08477343000736,1.668686634616353
1.8921213227457139,1.3828760297132152
1.8921213227457139,1.1952086929555052
1.8921213227457139,1.0867028523108555
1.6074701967323595,1.0495875223519224
1.6067599883166397,1.0495875223519224
1.497741454973684,1.0495875223519224
1.497741454973684,1.02511298053239
1.497741454973684,0.9875617376904242
1.6067599883166397,0.9875617376904242
1.7558515572297526,0.9875617376904242
1.7558515572297526,0.9875617376904242
1.6074701967323595,0.9875617376904242
1.6074701967323595,0.9658229481263021
1.6074701967323595,0.9658229481263021
1.6593525299841803,0.8249462877274611
1.7558515572297526,0.7078177980222344
1.7558515572297526,0.7078177980222344
1.6593525299841803,0.7078177980222344
1.647199630063304,0.7078177980222344
1.647199630063304,0.7078177980222344
1.647199630063304,0.7078177980222344
1.6593525299841803,0.7078177980222344
1.6593525299841803,0.7078177980222344
1.647199630063304,0.8249462877274611
1.4991561922170893,0.9776689163495765
1.4991561922170893,1.0057303161875315
1.4991561922170893,1.0148801745578426
1.4991561922170893,1.0148801745578426
1.647199630063304,1.0148801745578426
1.7267950169004593,1.0277249747715738
1.7267950169004593,1.055159755538377
1.7267950169004593,1.132299735361387
1.7267950169004593,1.132299735361387
2.03740140290411,1.2349628458542659
1.7267950169004593,1.256509925931471
2.03740140290411,1.256509925931471
1.7267950169004593,1.256509925931471
1.7267950169004593,1.1108681073839757
1.7267950169004593,1.0692480805964801
1.7267950169004593,0.9039527476596076
1.8770576707981474,0.9039527476596076
1.8495745899449088,0.9039527476596076
1.7767804190548078,0.9039527476596076
1.7767804190548078,0.9039527476596076
1.7767804190548078,0.9039527476596076
1.8770576707981474,0.9039527476596076
1.9337431371281597,0.9039527476596076
1.8495745899449088,1.1311977850734756
1.7767804190548078,1.2525672941986208
1.628259630094005,1.2980619750007631
1.5791992919878048,1.762113050086818
1.5791992919878048,1.8438066393853363
1.5791992919878048,2.544116930104449
1.5791992919878048,2.922767849820771
1.5791992919878048,3.6108889982164083
1.5791992919878048,3.652954930266955
1.5791992919878048,3.652954930266955
1.5791992919878048,3.652954930266955
1.574950734459167,3.652954930266955
1.4354265690949768,3.652954930266955
1.2085150728927145,3.652954930266955
1.7502531378713728,3.652954930266955
1.7502531378713728,3.652954930266955
1.7502531378713728,3.652954930266955
1.7502531378713728,3.652954930266955
1.7502531378713728,3.7019639750247535
1.7502531378713728,2.998226309919866
1.7502531378713728,1.8736107843650773
1.7502531378713728,1.5058303280618135
1.8774786379648052,1.2522973959919745
1.8774786379648052,1.1406886791657642
1.8774786379648052,1.0618771221156629
1.9936423857303478,0.8595567897626897
1.4874063521698857,0.85507189044419
1.4874063521698857,0.8523362436816894
1.4874063521698857,0.8523362436816894
1.4874063521698857,0.8509278765818876
1.4338012518256789,0.8300047373794381
1.4076788234242927,0.822127058648431
1.4076788234242927,0.822127058648431
1.4076788234242927,0.822127058648431
1.4076788234242927,0.8300047373794381
1.4874063521698857,0.8300047373794381
1.4874063521698857,0.8509278765818876
1.581971049436252,0.8509278765818876
1.581971049436252,0.9017913773252959
1.581971049436252,1.0782476703077695
1.7078138610588784,1.2909944487357896
1.7338564603342117,1.3536787671115311
2.163736147891346,1.4328043901997383
2.2324704973338316,1.4358536861337943
2.2324704973338316,1.526160725470681
2.2324704973338316,1.5569978883232363
2.4390996493437815,1.6025257165381577
2.4390996493437815,1.7896541367526368
2.9171368297446394,2.0158688185906537
2.9171368297446394,2.2286917475789867
2.9171368297446394,2.704224115018924
2.681459112376075,2.704224115018924
2.681459112376075,2.704224115018924
2.681459112376075,2.8259241424611528
2.681459112376075,2.8834416871605546
2.681459112376075,2.912876325018584
2.681459112376075,2.912876325018584
2.9547998512909195,2.912876325018584
2.9547998512909195,2.940762617133294
2.442255459026428,3.012480878342482
2.9663275360124532,3.094233232504966
2.9663275360124532,3.2082310649425847
2.5141269605779137,3.2082310649425847
2.5141269605779137,3.2082310649425847
2.5141269605779137,3.2082310649425847
2.5141269605779137,3.672244079598866
2.5141269605779137,3.779376834837264
2.5141269605779137,3.3703468634191154
3.0165840284545404,2.831764698480396
2.659082566170816,2.831764698480396
3.020943903919011,2.831764698480396
2.659082566170816,2.831764698480396
2.5141269605779137,2.831764698480396
2.3582758019053696,2.831764698480396
2.276514762086353,2.831764698480396
2.276514762086353,2.831764698480396
2.276514762086353,2.831764698480396
2.081266685760052,2.831764698480396
1.7201754356777428,2.9623088653017864
1.7201754356777428,3.696829706099324
1.7201754356777428,4.306810623956221
1.5975884865766807,4.518641499942496
1.578846382252041,4.549918063654499
1.578846382252041,4.718462077739321
1.5316879927032772,4.718462077739321
1.3340210338339198,5.172179736081738
0.7884399025476366,5.178642771354345
0.7539143089314733,5.237654558292193
0.7020184552003086,5.3351270940346875
0.7020184552003086,5.304292763589693
0.7020184552003086,5.252987228533707
0.7020184552003086,5.026139696571254
0.7020184552003086,4.5510169051568665
0.7020184552003086,4.255898722118808
0.7020184552003086,4.093168605573517
0.7020184552003086,4.093168605573517
0.8268996617300979,4.093168605573517
1.0411700133643165,4.093168605573517
1.193764943740094,4.093168605573517
1.2150032186884536,4.093168605573517
1.3985807860876447,4.093168605573517
1.3985807860876447,4.093168605573517
1.3985807860876447,3.2228391126609433
1.3985807860876447,2.2556207536325936
1.3985807860876447,1.7944049734422698
1.3985807860876447,1.407115447871333
1.3985807860876447,0.9907501355286207
1.420818664413223,0.9517961702167189
1.4636625007223998,0.9517961702167189
1.4636625007223998,0.9517961702167189
1.4982417850895258,0.9517961702167189
1.4982417850895258,0.9517961702167189
1.4636625007223998,0.9517961702167189
1.3107143191302513,0.9517961702167189
1.096159582841818,0.9517961702167189
1.096159582841818,0.9907501355286207
1.096159582841818,1.002255867655354
1.096159582841818,1.071599831515037
1.096159582841818,1.2249674555551542
1.096159582841818,1.2249674555551542
1.096159582841818,1.4218766254183266
1.1037692592253214,1.6712529381096592
1.8777834370142452,1.9744944832232885
1.8216161499787047,2.2240794628702805
1.8216161499787047,2.6579920954481957
1.8216161499787047,2.712708544905259
1.9141979534945734,2.1369450748405785
1.9141979534945734,1.7276653605818872
1.9141979534945734,1.3262770807780626
1.9141979534945734,1.3089222139767396
1.9141979534945734,1.2667488831935627
1.8216161499787047,1.2667488831935627
1.8169293039735368,1.2667488831935627
1.8169293039735368,1.2667488831935627
1.8169293039735368,1.2667488831935627
1.9141979534945734,1.2667488831935627
1.9141979534945734,1.2667488831935627
1.8708051987925027,1.2667488831935627
1.8708051987925027,1.291940641954766
1.8708051987925027,1.291940641954766
1.8708051987925027,1.291940641954766
1.8708051987925027,1.291940641954766
1.8708051987925027,1.3030673768781884
1.8708051987925027,1.2329223865683674
1.7690384062998181,1.1620138235156598
1.659279631439536,1.1073584629492403
1.5891956986099236,1.1073584629492403
1.5891956986099236,1.1073584629492403
1.5891956986099236,1.1073584629492403
1.5891956986099236,1.1073584629492403
1.5891956986099236,1.1073584629492403
1.5891956986099236,1.1620138235156598
1.5891956986099236,1.1620138235156598
1.5891956986099236,1.1620138235156598
1.5891956986099236,1.2012817922598849
1.5891956986099236,1.2012817922598849
1.5891956986099236,1.2012817922598849
1.7186926558897502,1.1110748084039048
1.7186926558897502,1.1110748084039048
1.7186926558897502,1.1110748084039048
1.7186926558897502,1.1110748084039048
1.7186926558897502,1.1110748084039048
1.7186926558897502,1.1110748084039048
1.7186926558897502,1.196911564035856
1.7186926558897502,1.1592778504684087
2.5013393145177414,1.1592778504684087
1.8441808633880787,1.189167736423792
1.993004984312478,1.196911564035856
1.993004984312478,1.196911564035856
1.7320897132020483,1.189167736423792
1.7320897132020483,1.189167736423792
1.7320897132020483,1.189167736423792
1.7320897132020483,1.189167736423792
1.7320897132020483,1.189167736423792
1.7320897132020483,1.189167736423792
1.7320897132020483,1.2700299064672627
1.7320897132020483,1.454881657732838
1.9035816240532595,1.9838515083185357
2.252040567856823,1.996006378263513
2.252040567856823,2.2389447516533965
2.4417927596186506,2.350105943450635
2.1213307224247875,2.44678352389359
2.1213307224247875,2.44678352389359
2.1213307224247875,2.44678352389359
2.1213307224247875,2.44678352389359
1.8523409419005692,2.6529139920899496
1.8390327883578212,3.4452665320092075
1.8390327883578212,4.607749153051523
1.8390327883578212,4.644806497729784
1.7959904138210017,4.812831293401103
1.7518431492553814,4.892377102298967
1.680192381325609,4.892377102298967
1.680192381325609,4.920436856975922
1.3504198488924108,5.0856089156886055
1.3504198488924108,5.1506588171798064
1.3504198488924108,5.238235209450778
1.3504198488924108,5.3821015598800335
1.3504198488924108,5.392141027282527
1.3425528665777395,5.628964890368738
1.3425528665777395,5.6359769082498135
1.3425528665777395,5.645250084905416
1.3425528665777395,5.645250084905416
1.353115723386963,5.664279087583394
1.353115723386963,5.691724567133029
1.353115723386963,5.7488223893852455
1.3425528665777395,5.839124079469639
1.3425528665777395,5.8406204835217395
1.3425528665777395,5.8406204835217395
1.3425528665777395,5.839124079469639
1.3743402436616643,5.839124079469639
1.3743402436616643,5.839124079469639
1.3590430832287497,5.881020905770403
1.3590430832287497,5.839124079469639
1.3590430832287497,5.815645138605596
1.4029761965042762,5.810743844793557
1.5439186133136567,5.801656992940228
1.5439186133136567,5.796118618249558
1.5439186133136567,5.698927511059319
1.5439186133136567,5.698217850618793
1.6414401720971037,5.584315608609224
1.710967024885365,5.557591206657716
1.8312814624713372,5.516981235991757
1.710967024885365,5.516981235991757
1.6414401720971037,5.483530800626596
1.6414401720971037,5.4672394406083065
1.6414401720971037,5.321164218579932
1.710967024885365,5.186577368103179
1.89398847430863,5.061710682434934
1.89398847430863,4.769507097583759
1.89398847430863,3.468547516767109
1.89398847430863,3.3083997775988303
1.89398847430863,3.3083997775988303
1.89398847430863,3.3083997775988303
2.0712891916922955,3.3083997775988303
2.872947853953633,3.3083997775988303
3.0669311624735935,3.1506842278665226
3.1561373670348165,2.648346636134804
2.872947853953633,2.4530579048699037
2.6813044496280405,2.026211852495044
2.4370532497037214,2.001051779161695
1.8969276864999085,1.7132781414006077
1.8969276864999085,1.5760147054754317
1.8969276864999085,1.5716171278104885
1.8969276864999085,1.2826704943488636
1.8969276864999085,1.2826704943488636
1.8969276864999085,1.2826704943488636
1.8969276864999085,1.2826704943488636
1.8969276864999085,1.2826704943488636
2.0444049644761053,1.2826704943488636
2.4826084818732514,1.2826704943488636
2.5175560976479545,1.2826704943488636
2.5175560976479545,1.6386446154554672
2.5993614394317004,1.8813152476306685
2.5175560976479545,1.7598917851836806
2.5175560976479545,1.7598917851836806
2.5175560976479545,1.8722696694532106
2.4826084818732514,1.8722696694532106
2.3750661899441776,1.7598917851836806
2.2436985208109044,1.6941804358355126
2.0554640446122807,1.5865260320838468
2.0554640446122807,1.5865260320838468
2.0554640446122807,1.5865260320838468
2.0554640446122807,1.5865260320838468
2.0554640446122807,1.5865260320838468
2.0554640446122807,1.6941804358355126
2.0554640446122807,1.8585792445308937
2.0554640446122807,1.5865260320838468
2.413156056451258,1.5865260320838468
2.413156056451258,1.8740475579518476
2.484526394165266,2.1836747959206932
2.657179897956383,2.31295785373944
2.657179897956383,2.31295785373944
2.657179897956383,2.31295785373944
2.5299566717262985,2.31295785373944
2.5299566717262985,2.31295785373944
2.484526394165266,2.31295785373944
2.484526394165266,2.6209808029129507
2.484526394165266,2.7777578928867137
2.638034583707845,2.9002004139112745
2.638034583707845,3.271907342663217
2.6353459535983053,3.3709538202488556
2.6353459535983053,3.413364565056771
2.6353459535983053,3.6076625584145576
2.6353459535983053,3.4214681265788065
2.638034583707845,3.485394280384473
2.638034583707845,3.485394280384473
2.641964216738254,3.485394280384473
2.638034583707845,3.485394280384473
2.638034583707845,3.485394280384473
2.641964216738254,3.4203971147434697
2.657840725859172,3.145374459725878
2.657840725859172,3.145374459725878
2.657840725859172,3.145374459725878
2.6020704922824227,3.145374459725878
2.6020704922824227,3.3363784940966608
2.5035054154849345,3.3363784940966608
2.4912604065648276,3.3363784940966608
2.2210943243086736,3.3363784940966608
2.2210943243086736,3.3363784940966608
2.2210943243086736,3.3363784940966608
2.2210943243086736,3.7940084052165077
2.2210943243086736,3.3363784940966608
2.5035054154849345,3.190779257393461
2.5035054154849345,3.190779257393461
2.6839042669237925,3.190779257393461
2.6839042669237925,3.190779257393461
2.9398481893565385,3.190779257393461
2.9857487471158923,3.190779257393461
2.9857487471158923,3.190779257393461
2.9398481893565385,3.190779257393461
2.9227286976557414,3.190779257393461
2.9227286976557414,3.190779257393461
2.9227286976557414,3.4031443498522056
2.9227286976557414,3.4031443498522056
2.9227286976557414,3.0929556474597937
2.3428635072228925,2.510695482218177
2.1089800597668527,2.461018445461033
2.0408449602878385,2.179707612457687
1.7099454225948896,2.0401454166310353
1.961117440898782,1.8891298816071331
1.961117440898782,1.8464712431307253
1.961117440898782,1.8464712431307253
1.961117440898782,1.8464712431307253
1.961117440898782,1.8464712431307253
1.961117440898782,1.8464712431307253
1.961117440898782,1.8464712431307253
1.961117440898782,1.8464712431307253
2.291678069018112,1.8464712431307253
2.130633691650828,1.8464712431307253
2.291678069018112,2.3158768476814853
2.4855767583792794,2.6141366726090163
1.8636699090888402,3.400172508555506
1.5457474101170818,3.948348671108877
1.5457474101170818,4.023395120872421
1.5457474101170818,4.218379856571151
1.5457474101170818,4.440630860056947
1.5457474101170818,4.872760294329505
1.5457474101170818,4.905342855209463
1.5457474101170818,4.872760294329505
1.5457474101170818,4.872760294329505
1.5457474101170818,4.872760294329505
1.5457474101170818,4.872760294329505
1.5457474101170818,4.872760294329505
1.4294118129892006,4.872760294329505
1.4294118129892006,4.872760294329505
1.4294118129892006,4.879886856897624
1.4294118129892006,4.879886856897624
1.4294118129892006,4.879886856897624
1.4294118129892006,3.9051861083303265
1.4294118129892006,2.806709761463788
1.4294118129892006,1.9581468358337761
1.5114671535226547,1.5955200009035246
1.5114671535226547,1.4893321554218824
1.5114671535226547,1.3767797822838685
1.5114671535226547,1.3564013681542024
1.39690174652468,1.2726689170421466
1.39690174652468,1.2726689170421466
1.39690174652468,1.2726689170421466
1.39690174652468,1.2726689170421466
1.39690174652468,1.2726689170421466
1.39690174652468,1.2726689170421466
1.39690174652468,1.3564013681542024
1.39690174652468,1.3767797822838685
1.39690174652468,1.4957216769626418
1.39690174652468,1.7588598164461509
1.39690174652468,1.9132522689960223
2.156916244142415,2.0075226613870587
1.3645616330349266,2.082306959736493
0.9855464507998074,2.455118533803115
0.5184784756017752,2.895738507073133
0.47421556958720185,3.653904216279945
0.11459510096478337,4.448875339742886
0.11343226542813421,4.725111925574049
0.11036582834970513,4.393832337929741
0.11036582834970513,3.535470736426291
0.11036582834970513,2.7262359593626133
0.10700908587796767,2.061613335674722
0.10700908587796767,2.044739855956459
0.10700908587796767,1.9213931448396495
0.10995797871783308,1.914116968457646
0.11036582834970513,1.4438870489482942
0.11343226542813421,1.3541164809005446
0.11343226542813421,1.2874176496063987
0.11692083081495974,1.2874176496063987
0.12242555528516495,1.2874176496063987
0.13503909075973078,1.2874176496063987
0.855678938336872,1.2874176496063987
1.6603991179803472,1.2874176496063987
1.6603991179803472,1.3447445219733243
1.6603991179803472,1.3447445219733243
1.6672429401000757,1.285831249942733
1.6672429401000757,1.2275308401898681
1.6672429401000757,1.2275308401898681
1.6672429401000757,0.7627448305855048
1.6672429401000757,0.7627448305855048
1.8287317748720708,0.7592664503041596
1.8287317748720708,0.7503463780693187
1.8287317748720708,0.6696795622260914
1.8287317748720708,0.5988539828928616
2.0301242784355593,0.5911491005050389
2.038747211447197,0.5724403112132588
2.038747211447197,0.5724403112132588
2.038747211447197,0.5724403112132588
2.0324424066912625,0.5724403112132588
2.015445612969895,0.5988539828928616
1.773040217840403,0.5988539828928616
1.515399043453557,0.5988539828928616
1.510418632390681,0.5988539828928616
1.4318091446829941,0.6374773209292386
1.3926120948463174,0.7334292096469389
1.3597337384220007,0.8675535223803692
1.3597337384220007,0.9734637083993363
1.3597337384220007,1.080915380919304
1.2821972711619876,1.1838324155348403
1.1529201053392248,1.1997503196687147
1.1524019795987857,1.2331655595224076
1.0992987764225097,1.2475364791734311
1.1529201053392248,1.2475364791734311
1.1529201053392248,1.3291435921608237
1.1529201053392248,1.3836078939339964
1.1529201053392248,2.070711554336981
1.2004154882346907,3.3778468084168374
1.2004154882346907,4.7501286400916225
1.2004154882346907,3.9226107898891183
1.4783533014656693,2.6171359272548655
1.4783533014656693,1.729345026616908
1.4783533014656693,1.284661942254765
1.4783533014656693,1.2839509685348782
1.4783533014656693,1.2839509685348782
1.4783533014656693,1.2839509685348782
1.4783533014656693,1.2839509685348782
1.4783533014656693,1.2839509685348782
1.2396664032970621,1.2839509685348782
1.2396664032970621,1.2839509685348782
1.2396664032970621,1.2839509685348782
1.2396664032970621,1.2839509685348782
1.2396664032970621,1.284661942254765
1.295664788460599,1.4325621406221571
1.4435992177939527,1.9505030308294096
1.6432429672472069,3.1570040118774525
1.6432429672472069,4.421327765418503
1.6432429672472069,5.476236893129954
1.5347564330794257,5.619334832945452
1.5347564330794257,5.698317644342991
1.5347564330794257,5.725175609365694
1.5347564330794257,5.725175609365694
1.302912074988171,5.725175609365694
1.302912074988171,5.709828906711813
1.302912074988171,5.709828906711813
1.302912074988171,5.709828906711813
1.302912074988171,5.681037956870114
1.302912074988171,5.681037956870114
1.302912074988171,5.652062603256549
1.302912074988171,5.620371008969908
1.7006143919397727,5.57941801224656
1.7118176404549204,5.57941801224656
1.7118176404549204,5.57941801224656
1.7006143919397727,5.57941801224656
1.7006143919397727,5.558852391150163
1.7006143919397727,5.511279541500379
1.7006143919397727,5.511279541500379
1.6981087495546474,5.511279541500379
1.6734971711455422,5.343130025954719
1.5986610611171221,5.073627155953907
1.5986610611171221,4.623774484406864
1.5986610611171221,4.47213595499958
1.5986610611171221,4.341782701366502
1.6981087495546474,4.326921176772371
1.706440360740226,4.326921176772371
1.706440360740226,4.326921176772371
1.706440360740226,4.326921176772371
1.706440360740226,4.326921176772371
1.6378077742196957,4.326921176772371
1.706440360740226,4.326921176772371
1.706440360740226,4.326921176772371
1.429091959575273,4.542654063664442
1.429091959575273,4.634050017160533
1.429091959575273,4.634050017160533
1.429091959575273,4.635009586286182
1.429091959575273,4.745393960691789
1.429091959575273,4.745393960691789
1.429091959575273,4.677279739505862
1.429091959575273,4.677279739505862
1.5217265699165545,4.677279739505862
1.806052651496272,4.677279739505862
1.9859704800723856,4.677279739505862
2.0407529841618715,4.677279739505862
2.0407529841618715,4.665696735207742
1.7683023450362534,4.677279739505862
1.7683023450362534,4.677279739505862
1.7683023450362534,4.665696735207742
1.7683023450362534,4.665696735207742
1.7683023450362534,4.620587854923804
1.7683023450362534,4.620587854923804
1.7683023450362534,4.620587854923804
1.7683023450362534,4.620587854923804
1.7683023450362534,4.620587854923804
1.7683023450362534,4.620587854923804
1.7683023450362534,4.781151169661469
1.5776576641148112,4.824048432637876
1.5776576641148112,4.834797172868548
1.5776576641148112,5.03419357782524
1.5776576641148112,5.140084041674443
1.5140983897568294,5.202897969372345
1.4953877070496837,5.265141051704939
1.4953877070496837,5.253333006083814
1.4953877070496837,5.251001799854849
1.4953877070496837,5.251001799854849
1.515702675454668,5.248773933248232
1.5776576641148112,5.248773933248232
1.718060351580532,5.251001799854849
1.718060351580532,5.187319870685855
1.515702675454668,5.140084041674443
1.515702675454668,4.569113236635092
1.6855666053841982,4.569113236635092
1.7471715050846488,4.535726275470874
1.7959555454267515,4.338718488663793
1.7959555454267515,4.338718488663793
1.7959555454267515,4.338718488663793
1.7959555454267515,4.338718488663793
1.7959555454267515,4.338718488663793
2.0360778267218897,4.338718488663793
2.1573802717825483,4.338718488663793
2.2582017315260416,3.154534577133001
2.407934560091919,2.324801853827737
2.407934560091919,1.9740144211060677
2.3049692485352504,1.82473526302681
2.1573802717825483,1.6835694667653254
2.0787223033971447,1.5551845225785206
2.2582017315260416,1.3819392576208558
2.2314054504067053,1.1507112126327206
2.2314054504067053,1.1398765047087702
2.2305807381509704,1.1398765047087702
2.0721170159261946,1.1243777529204866
2.0003497512163686,1.0848581393074548
2.0003497512163686,1.078736571117443
2.0003497512163686,1.034886947261872
2.0003497512163686,0.9870185436807007
2.0003497512163686,0.9870185436807007
2.0003497512163686,0.9754635538455552
1.9589334174817352,0.9292072343211545
1.5877286463866795,0.9039951404726682
1.5877286463866795,0.9039951404726682
1.5877286463866795,0.9039951404726682
1.799433999100964,0.9039951404726682
1.5877286463866795,0.9039951404726682
1.5396146110942803,0.9039951404726682
1.514497609840139,0.9044460139345034
1.514497609840139,0.9044460139345034
1.514497609840139,0.9044460139345034
1.514497609840139,0.9092246677640989
1.5396146110942803,0.982386639895822
1.5175947772508254,0.982386639895822
1.5175947772508254,0.9092246677640989
1.5175947772508254,0.9044460139345034
1.5175947772508254,0.7882542003263845
1.7351717858502351,0.6397445378383094
1.7351717858502351,0.6348302909178779
1.8960825618400943,0.6348302909178779
1.5430489259702154,0.6348302909178779
1.4776817226060752,0.6348302909178779
1.4776817226060752,0.6348302909178779
1.4776817226060752,0.6348302909178779
1.4776817226060752,0.6348302909178779
1.4776817226060752,0.6348302909178779
1.4776817226060752,0.836634653950708
1.4776817226060752,0.8438308764235339
1.4776817226060752,1.1193431113967929
2.048375949498047,1.2624128194150812
2.215147510214331,1.3062419064269253
2.215147510214331,1.526976957643278
2.2868049778044157,1.526976957643278
2.2868049778044157,1.5596258642952323
2.2868049778044157,1.6079333783515304
2.1929194751873196,1.6079333783515304
2.1929194751873196,1.7057435828903662
2.1929194751873196,1.734852031022407
2.1929194751873196,1.8134280601214878
2.1929194751873196,1.8904224013673703
2.1929194751873196,1.9306265511782412
2.117803902784334,1.9306265511782412
2.171806284876615,2.1765299664550257
2.1929194751873196,2.3082634789958267
2.1929194751873196,2.3665129798486206
2.1929194751873196,2.413554558921043
2.171806284876615,2.3665129798486206
2.114311947995857,2.3082634789958267
2.252506763086399,2.3040545059064126
2.252506763086399,2.3040545059064126
2.252506763086399,2.3040545059064126
2.1915742436357823,2.3040545059064126
2.1915742436357823,2.3040545059064126
1.8502539290599245,2.3040545059064126
1.6628891484316837,2.3040545059064126
1.3606400421080143,2.1543512480177394
1.178760786254237,1.7401861350342984
1.178760786254237,1.473802671695028
1.178760786254237,1.287742426377537
1.178760786254237,1.287742426377537
1.178760786254237,1.287742426377537
1.178760786254237,1.287742426377537
1.178760786254237,1.287742426377537
1.178760786254237,1.287742426377537
1.1885752592303271,1.287742426377537
1.1885752592303271,1.287742426377537
1.1885752592303271,1.287742426377537
1.1885752592303271,1.5211993511121649
1.5601867346515483,1.8252177770853975
1.4977913514545096,2.2350964166335716
1.458687639772876,2.896369674558367
1.458687639772876,2.896369674558367
1.458687639772876,2.929076713263406
1.458687639772876,2.628237935359262
1.458687639772876,2.1746419774381054
1.458687639772876,2.1279711982110867
1.4977913514545096,1.8876403173359129
1.5601867346515483,1.8876403173359129
1.6516101998531538,1.8876403173359129
1.9787430632346215,1.8876403173359129
2.007979322284337,1.6700159174135918
2.1146143356892613,1.6700159174135918
2.1146143356892613,1.6700159174135918
2.1146143356892613,1.6700159174135918
2.1571233697316443,1.8876403173359129
2.1571233697316443,1.8888726135215796
2.1571233697316443,2.0403174111968365
2.1571233697316443,2.1307219160711903
2.27305818859283,2.1307219160711903
2.364842479517562,2.1307219160711903
2.2950602246287617,2.4601708496263615
2.367749613253039,2.8990461894566746
2.367749613253039,3.2406320442627736
2.106060209162308,3.3806170189138935
2.030094331386185,3.2406320442627736
1.985543128299041,2.9824453904941963
1.6204997808134,2.4480038448079653
1.6204997808134,1.7240369614648636
1.6204997808134,1.4815319297852596
1.6204997808134,1.3738763223165775
1.6204997808134,1.3738763223165775
1.6204997808134,1.3738763223165775
1.6204997808134,1.3738763223165775
1.6204997808134,1.3738763223165775
1.641867260038987,1.3738763223165775
1.7823002701978463,1.3738763223165775
1.9103855374328271,1.3738763223165775
2.1857498648511404,1.3738763223165775
2.274047686579558,1.3738763223165775
2.295003024798702,1.6177888168793721
2.326895419135201,2.064579452840608
2.326895419135201,2.064579452840608
2.326895419135201,2.064579452840608
2.326895419135201,2.064579452840608
2.326895419135201,2.064579452840608
2.326895419135201,2.064579452840608
2.326895419135201,2.064579452840608
2.4054926657336893,2.3647598317170866
2.4274430858328406,2.494061144429313
2.629647036091202,2.8866134178355
2.866340962913606,3.003353195583326
2.900955330870624,3.231482912774131
2.93394283313609,3.231482912774131
2.93394283313609,3.0463752208575823
2.9388960722066626,3.0463752208575823
3.0273073737280787,3.0463752208575823
2.900955330870624,3.0463752208575823
2.866340962913606,3.231482912774131
2.8174858776704506,3.231482912774131
2.668482513164473,3.139253574894597
2.4627216528140594,2.8812245514836454
2.3885620017435176,2.7873764833228503
2.3774741394273953,2.712623603853987
2.3774741394273953,2.712623603853987
2.3774741394273953,2.712623603853987
1.9850339084608066,2.712623603853987
1.8951132107944857,2.712623603853987
1.8475233423323787,2.712623603853987
1.628635861285536,2.712623603853987
1.628635861285536,2.712623603853987
1.2853518554022325,2.946506636552349
0.9658768607869075,3.020487949123555
0.6111138533503307,3.4921479020562103
0.47852852552718245,4.051836808075536
0.14403161087772276,4.738402514690644
0.14403161087772276,5.063858287008846
0.14403161087772276,4.419231218655867
0.14403161087772276,3.653357776223897
0.14403161087772276,2.9370699406372434
0.14403161087772276,2.136325122499625
0.14144049516174606,2.0936988536071044
0.14144049516174606,2.017140856832566
0.14144049516174606,2.017140856832566
0.14681949246595538,1.7668321797627684
0.15565135969088723,1.7668321797627684
0.15861452200536483,1.4956582925262125
0.16102161971286807,1.2310371852537954
0.1782512830860614,1.1471814765430441
0.1788199791589556,1.1233335922704086
0.9580803054630503,1.1213330060708189
1.0708669650124771,1.1213330060708189
1.2116772386195838,1.1213330060708189
1.2290804764474745,1.1213330060708189
1.5055701813798976,1.1213330060708189
1.5055701813798976,1.1213330060708189
1.7539693460091839,1.1213330060708189
2.0365896175359337,1.1213330060708189
2.312309435467751,1.1213330060708189
2.2987131659797813,1.0104392775515145
2.2987131659797813,1.0104392775515145
2.312309435467751,0.9465399998705595
2.2987131659797813,0.7978264127616587
2.0841900638056488,0.7022231120972318
2.0169809062645907,0.7022231120972318
2.005950862906176,0.7022231120972318
1.964506249545498,0.7022231120972318
1.8227367080401424,0.7022231120972318
1.646505208790446,0.7022231120972318
1.646505208790446,0.7022231120972318
1.5955235636728293,0.7022231120972318
1.4965885232162757,0.7595839810516253
1.454802627193289,0.7667785231611386
1.4302459131077494,0.8977822798891022
1.2342525200084549,0.8993397442439375
1.2342525200084549,0.8993397442439375
1.2342525200084549,0.8993397442439375
1.2342525200084549,0.8993397442439375
1.2342525200084549,0.8993397442439375
1.2342525200084549,0.8993397442439375
1.2342525200084549,1.0798780603536764
1.2342525200084549,1.2160007253628649
1.0802692236494158,1.72089728963849
1.0513157911880662,1.9988294163363598
1.0802692236494158,2.4182051524214145
1.246915603552602,3.289646264934768
1.246915603552602,4.888903666132432
1.246915603552602,5.5591263262709925
1.246915603552602,5.736456208685741
1.2509248137070375,5.749196854147374
1.1613136960347747,5.840238866469727
1.1613136960347747,5.840238866469727
1.1613136960347747,5.84217078859798
1.2588555522250489,5.84217078859798
1.355221572195034,5.844896919582855
1.4146172830674992,5.84217078859798
1.4317554921296978,5.837999639784767
1.4911945801888753,5.837999639784767
1.5650233966353388,5.81492580269449
1.5768061596120166,5.81492580269449
1.6684483411403004,5.791959476676115
1.7403427627455066,5.791959476676115
1.7403427627455066,5.791959476676115
1.5216167613647196,5.726962942587708
1.2885520725113742,5.424732547004679
1.2885520725113742,5.067862307673992
1.2885520725113742,4.445361960178304
1.2885520725113742,3.5999612120598123
1.2885520725113742,3.2129371681107988
1.2885520725113742,3.2129371681107988
1.2885520725113742,3.2129371681107988
1.097888715740493,3.2129371681107988
1.0948331443050052,3.2129371681107988
1.041526845496287,3.2129371681107988
1.0864007009502907,3.2129371681107988
1.0864007009502907,3.2129371681107988
1.0864007009502907,3.2129371681107988
1.0864007009502907,3.405367779686673
1.0864007009502907,3.4152283272428243
1.0864007009502907,4.488332847475172
1.062649595809546,5.201785684547908
1.062649595809546,5.647959901159795
1.0766928671527864,5.691160892947157
1.5212150463397975,5.67112287237277
1.588315724972326,5.647959901159795
1.6856243564624733,5.647959901159795
1.6856243564624733,5.647959901159795
1.6856243564624733,5.582903170973835
1.6856243564624733,5.582903170973835
1.6856243564624733,5.582903170973835
1.5400100986076244,5.562388959806031
1.5400100986076244,5.527039234175353
1.4404169540757965,5.514733449536844
1.367632186011746,5.483964655570535
1.367632186011746,5.418427737272836
1.367632186011746,5.408577735509916
1.367632186011746,5.378808711294808
1.367632186011746,5.284932909430687
1.367632186011746,5.21614124821983
1.367632186011746,5.200736755878876
1.367632186011746,5.200736755878876
1.7281345399236996,5.200736755878876
1.9243078899852408,5.200736755878876
1.8542317386800407,5.200736755878876
1.9243078899852408,5.200736755878876
1.6421638824738138,5.118311491792393
1.6421638824738138,5.026620195008141
1.6421638824738138,5.020521418765227
1.6421638824738138,5.020521418765227
1.6421638824738138,4.845494929448494
1.6421638824738138,4.845494929448494
1.6421638824738138,4.506490348767153
1.6421638824738138,4.47213595499958
1.6421638824738138,4.47213595499958
1.9489637397136585,4.47213595499958
2.251447008861764,4.47213595499958
2.345446857644844,4.47213595499958
2.3840324503625623,4.47213595499958
2.360029691654232,4.506490348767153
2.251447008861764,4.588402157890515
2.1468964357013567,4.588402157890515
2.1339410390573614,4.588402157890515
1.7462827201224125,4.765222462722998
1.7462827201224125,4.930852961520741
1.7462827201224125,4.98945748873374
1.7462827201224125,5.157805390390521
1.7462827201224125,5.210230728971264
1.7462827201224125,5.312715936504098
1.658423386243869,5.434449313434987
1.6222045695782819,5.390159591792192
1.6084089913749606,4.736085796435191
1.6084089913749606,4.667421523686248
1.6222045695782819,4.582714236728864
1.6511827462187234,4.549077445855799
1.6511827462187234,4.483831035717595
1.6511827462187234,4.284747539329961
1.6511827462187234,4.131919303075236
1.6511827462187234,4.131919303075236
1.6511827462187234,4.131919303075236
2.118126992767884,4.131919303075236
2.3844618893667606,4.061888997622547
2.7213709224366265,3.8397048947193277
2.7213709224366265,3.4657911017550975
2.7213709224366265,3.4453138286412996
2.780692745054158,3.4453138286412996
2.780692745054158,2.77826046839981
2.8052242642493774,2.3251067094336824
2.7980110295107354,1.8281047529875898
2.7980110295107354,1.731942331796587
2.7980110295107354,1.5680687529120698
2.7870576748571003,1.5680687529120698
2.780692745054158,1.5052507875747139
2.4826812305061217,1.433762361985392
2.4826812305061217,1.4223380445444
2.4826812305061217,1.2820151485700955
2.2498031738243953,1.2820151485700955
2.2498031738243953,1.26747555162702
1.8380594701640733,1.2317167225139154
1.7833420348036222,1.1355909304620178
1.7833420348036222,1.0546627015327834
1.7833420348036222,1.043879764868893
1.8745418433674992,1.039853878469181
1.8808515690197263,1.039853878469181
1.8745418433674992,1.039853878469181
1.8200212715151423,1.043879764868893
1.713717948638659,1.043879764868893
1.713717948638659,1.043879764868893
1.713717948638659,1.043879764868893
1.713717948638659,1.043879764868893
1.77441486759182,1.0412345422114715
1.713717948638659,1.043879764868893
1.6376079767697673,1.1439175071277377
1.6376079767697673,1.1439175071277377
1.6376079767697673,1.1295398983519611
1.6376079767697673,1.1295398983519611
1.6376079767697673,1.1295398983519611
1.77441486759182,1.1295398983519611
1.77441486759182,1.1295398983519611
1.77441486759182,1.1295398983519611
1.8221796810693212,1.1295398983519611
1.8221796810693212,1.1439175071277377
1.824974488095637,1.1782009919839151
1.967008009066781,1.2785362135377523
2.0083811284652686,1.2785362135377523
2.0083811284652686,1.4262160953307184
2.0083811284652686,1.4262160953307184
2.0083811284652686,1.4290747326643505
2.0083811284652686,1.4290747326643505
1.679440927934632,1.6181263912936494
1.679440927934632,1.6564363649624014
1.679440927934632,1.7174043429054928
1.679440927934632,1.7174043429054928
1.679440927934632,1.7174043429054928
1.679440927934632,1.7174043429054928
1.679440927934632,1.7655829307099
1.679440927934632,1.7948004239808635
1.8203707938700722,1.954920200852134
2.4571634604849346,1.954920200852134
2.4571634604849346,2.416459632462015
2.587631299432478,2.442284099684198
2.691854920699868,2.567483113271357
2.691854920699868,2.7993461374848896
2.6952364643595894,2.8302442697273915
2.778189238606141,2.848801634755216
2.8865293647969517,3.2110795980561613
2.935976730501492,3.387734271442488
3.0508349375067714,3.441086398463918
3.0508349375067714,2.945637723105247
3.0508349375067714,2.735091782647314
2.987471746187703,2.735091782647314
2.987471746187703,2.735091782647314
2.987471746187703,2.735091782647314
2.8269821506642017,2.4424190252000604
2.888014245349621,2.3800909452514483
2.8269821506642017,2.3800909452514483
2.7832731080040056,2.3800909452514483
2.5851856532360435,2.3800909452514483
2.299087238109502,2.3217358577727554
1.9402267568704101,1.8864090417017472
1.9402267568704101,1.5974188870715529
1.9402267568704101,1.3779205216702297
1.9402267568704101,1.3779205216702297
1.9402267568704101,1.3779205216702297
1.9402267568704101,1.3779205216702297
1.9402267568704101,1.3779205216702297
1.9402267568704101,1.3779205216702297
1.9402267568704101,1.3779205216702297
2.1272396790060966,1.3779205216702297
2.1272396790060966,1.3779205216702297
2.1272396790060966,1.4062528179780878
2.0053125508637684,1.6610534943960067
1.8932617912929612,1.6780500472823545
1.8932617912929612,1.6610534943960067
1.8932617912929612,1.4478077208684315
1.8071031319923063,1.4478077208684315
1.7717070431491924,1.3370879383741512
1.7717070431491924,1.2430083366224585
1.7717070431491924,1.2235518735442565
1.7717070431491924,1.2235518735442565
1.7717070431491924,1.2235518735442565
1.7717070431491924,1.2235518735442565
1.7717070431491924,1.2235518735442565
1.789643821943332,1.2235518735442565
1.789643821943332,1.2430083366224585
1.789643821943332,1.2430083366224585
2.166691695289998,1.2430083366224585
2.5414200266189075,1.2877007080773921
2.532785533022258,1.5894828283583553
2.4568834763865874,1.8455875657594702
2.2804669172298877,1.9388866428785767
2.2804669172298877,1.9525106868018365
2.2804669172298877,1.9525106868018365
2.2804669172298877,1.9525106868018365
2.2804669172298877,1.9525106868018365
2.2804669172298877,2.092841866219458
2.2804669172298877,2.140998353071465
2.2804669172298877,2.140998353071465
2.2804669172298877,2.458964110170031
2.438987658544498,2.140998353071465
2.438987658544498,2.139459465545033
2.6014793580943696,2.139459465545033
2.6014793580943696,2.1254975901396533
2.6014793580943696,2.0511994149807804
2.6014793580943696,2.0511994149807804
2.6014793580943696,2.0511994149807804
2.6095050205807033,2.0511994149807804
2.6095050205807033,2.0511994149807804
2.6095050205807033,2.1254975901396533
2.6095050205807033,2.1254975901396533
2.8389257030326465,2.139459465545033
2.8389257030326465,2.4123914346962145
2.977747979542391,2.495264949766669
3.199117341531103,2.581094856940326
3.199117341531103,2.7671204748410485
2.977747979542391,2.8368492921992305
2.9292256621900084,2.8368492921992305
2.8668751277527935,2.8368492921992305
2.8668751277527935,3.274842343186989
2.8668751277527935,3.2872380160778993
2.8668751277527935,3.2872380160778993
2.7451245517425202,3.113437646331085
2.7451245517425202,3.113437646331085
2.7451245517425202,3.113437646331085
2.7079578346222752,3.113437646331085
2.4022928670920245,3.113437646331085
2.4022928670920245,3.113437646331085
2.4144767969631555,3.113437646331085
2.4144767969631555,3.113437646331085
2.4022928670920245,3.113437646331085
2.317760297471623,3.3297938941757486
1.7895367039000099,3.6011003927114227
0.94196623005968,4.527218401390177
0.8513366559154094,4.793894447107434
0.8301681662772974,4.994662828797177
0.8301681662772974,5.012972347861693
0.8301681662772974,4.68723294747987
0.8301681662772974,4.2617980537428775
0.8301681662772974,3.4406916649602395
0.8301681662772974,2.506981365771694
0.8301681662772974,2.095713280755924
0.6785718050493762,2.075260680864257
0.6785718050493762,2.0628616877897765
0.8301681662772974,2.0628616877897765
0.8835093532083272,1.8209869001438161
0.9110685031169443,1.7403024723881861
0.9395235356660319,1.5050563141510611
0.9874515449064619,1.3567283724930348
0.9874515449064619,1.2966896582214835
0.9874515449064619,1.1727620971323038
0.9874515449064619,1.1727620971323038
1.2006996909767937,1.1727620971323038
1.5755931652985342,0.9762524247766816
1.5755931652985342,0.9762524247766816
1.5755931652985342,0.927865199856374
1.9733413923063028,0.7804400927819055
2.0054446481799744,0.7236950429879869
2.064006539077405,0.7195028064263714
2.2145799966889848,0.6763878434068872
2.205209572883905,0.6449167848820463
2.1466647733179807,0.6135331210783125
2.064006539077405,0.6135331210783125
2.0054446481799744,0.6135331210783125
1.9733413923063028,0.6135331210783125
1.9588401497842451,0.6135331210783125
1.799420734289558,0.6135331210783125
1.6695714258922754,0.6135331210783125
1.632598022210649,0.6763878434068872
1.6209616790718033,0.8427525757365041
1.6163278107041075,0.8484825369984135
1.5692800257365183,0.861981396872007
1.4545184345472337,0.9031548950995206
1.397078231320792,0.9370511960292858
1.324943621637562,0.9611715025306341
1.0564829278823042,0.9810174527254395
1.0564829278823042,1.0590802195357285
1.0564829278823042,1.1998255589553999
1.0012950395683746,1.2275639102060856
0.9691375856626273,1.2716684630515602
0.7362614958395857,1.339805249668708
0.7362614958395857,1.3443317019325935
0.7362614958395857,1.3975574427126305
0.7362614958395857,1.689528000150953
0.7362614958395857,2.159230928792814
0.8119574280479532,2.5347000518440534
0.8972332464081123,3.4574641455267296
0.8972332464081123,5.243876468352157
0.8972332464081123,5.652856052459946
1.0269012070292827,5.766160822086057
1.0891054038874286,5.837681842495832
1.168763573587792,5.855149878538281
1.2809288805171108,5.891165702344464
1.4454963989145178,5.878487964201065
1.542438601434542,5.867809269271148
1.5711931964775911,5.859516329341742
1.6395763843342508,5.855149878538281
1.6395763843342508,5.83158461620871
1.6395763843342508,5.83158461620871
1.6395763843342508,5.8173115850111925
1.6493526735292234,5.777421294462776
1.6493526735292234,5.679863402641864
1.6493526735292234,5.524505908686787
1.6493526735292234,4.7032197595952665
1.6493526735292234,2.8964753973570407
1.6493526735292234,1.9390143546494827
1.6493526735292234,1.6172640994031142
1.6493526735292234,1.6172640994031142
2.0592665802005725,1.6172640994031142
2.1124935758646872,1.6172640994031142
2.1124935758646872,1.6172640994031142
2.1124935758646872,1.6172640994031142
2.1124935758646872,1.6172640994031142
1.8542190530005818,1.6172640994031142
1.8393177696469227,1.6172640994031142
1.8210428672387486,1.6172640994031142
1.7248500011118681,1.7653263965638049
1.675007332052096,2.911427498877138
1.675007332052096,4.2199698033964514
1.675007332052096,5.30901616388718
1.675007332052096,5.557201708232443
1.6028838280797386,5.654807464822677
1.5539695161457647,5.720869354383172
1.5227191800649489,5.720869354383172
1.5227191800649489,5.680506471243485
1.5227191800649489,5.633326491942319
1.5227191800649489,5.633326491942319
1.54891596304061,5.606039533963284
1.54891596304061,5.602211066113296
1.455384299425164,5.422939619626806
1.455384299425164,5.278056583161827
1.455384299425164,5.140753040671502
1.455384299425164,5.047552333674263
1.54891596304061,4.965968611267854
1.5513177719888382,4.822335372772933
1.795335850777836,4.693311834650654
1.795335850777836,4.693311834650654
1.8041591260414551,4.693311834650654
1.8041591260414551,4.693311834650654
1.8196563579749623,4.693311834650654
1.8196563579749623,4.693311834650654
1.8425592095057883,4.664821609856191
1.8425592095057883,4.664821609856191
1.8425592095057883,4.730359082551623
1.8425592095057883,4.730359082551623
1.8425592095057883,4.730359082551623
1.8425592095057883,4.730359082551623
1.8425592095057883,4.730359082551623
1.8425592095057883,4.730359082551623
2.2268989158832766,4.730359082551623
2.223122155282328,4.730359082551623
2.2268989158832766,4.730359082551623
2.2268989158832766,4.939217531415082
1.7082561458653693,4.974879561156823
1.7082561458653693,4.975345874956653
1.7082561458653693,5.101982643204083
1.7082561458653693,5.114647810105958
1.7082561458653693,5.276943125132489
1.7082561458653693,5.276943125132489
1.7082561458653693,5.114647810105958
1.7082561458653693,5.0209702534160785
1.7082561458653693,4.773786644093645
1.9712414603635742,4.773786644093645
1.9712414603635742,4.773786644093645
2.1153301307622376,4.773786644093645
2.0404260363704183,4.773786644093645
1.9712414603635742,4.773786644093645
1.9646721949771941,4.773786644093645
1.8509285169207594,4.773786644093645
1.7240747561255951,4.773786644093645
1.5610781999779302,5.002051285243805
1.5610781999779302,5.082378262071227
1.5610781999779302,5.237902359399962
1.5610781999779302,5.409116882085971
1.5610781999779302,5.409116882085971
1.5610781999779302,5.5003734121988614
1.5610781999779302,5.490175479508679
1.5610781999779302,5.398088241784116
1.8746759139457247,4.891106855949419
1.9546006913659126,4.743400021571754
2.258754896056505,4.472135954999579
2.32975677585147,4.3972950297928985
2.3984597269672014,3.803875602158964
2.4193174019202712,2.9689857897918994
2.4193174019202712,2.065032467010769
2.4193174019202712,1.6406956713484055
2.4193174019202712,1.4917161399124084
2.4193174019202712,1.4057894754603824
2.4193174019202712,1.0179841065163115
2.0488742764611865,0.8948700950737625
2.0488742764611865,0.8630332498804887
2.0488742764611865,0.8630332498804887
1.9657072513659326,0.8630332498804887
1.8776853590297928,0.8630332498804887
1.7187701713409587,0.8630332498804887
1.7187701713409587,0.8630332498804887
1.7187701713409587,0.9308795324988002
1.7187701713409587,0.9308795324988002
1.7187701713409587,0.9308795324988002
1.6782092904445316,0.8630332498804887
1.6782092904445316,0.9030161384927478
1.6782092904445316,0.9308795324988002
1.6782092904445316,0.7857571008277432
1.7187701713409587,0.6273467239590934
1.7187701713409587,0.6179919985247381
1.7626150750382557,0.6179919985247381
1.6782092904445316,0.6179919985247381
1.6782092904445316,0.6179919985247381
1.6782092904445316,0.6179919985247381
1.7772414262283465,0.6179919985247381
1.6728306754777285,0.6179919985247381
1.6728306754777285,0.6179919985247381
1.604773731355755,0.788183312962554
1.4363017227585086,0.8277437280983488
1.4363017227585086,0.9007567202286858
1.4363017227585086,1.0295269224427055
1.4363017227585086,0.937740304123903
1.6230466951225655,0.937740304123903
1.3998692806061643,0.937740304123903
1.3998692806061643,0.9007567202286858
1.3998692806061643,0.8382768803841816
1.3998692806061643,0.8382768803841816
1.6230466951225655,0.8382768803841816
1.6230466951225655,0.937740304123903
1.6579411625014073,0.937740304123903
1.6579411625014073,1.0384788221275172
1.6579411625014073,1.0384788221275172
1.6579411625014073,1.0408862004080723
1.6579411625014073,1.0408862004080723
1.6579411625014073,1.08309874429424
1.6579411625014073,1.1158222824554354
1.6579411625014073,1.133153982461108
1.6579411625014073,1.212077512142757
1.6982690656891135,1.235506798870423
1.6982690656891135,1.235506798870423
1.6982690656891135,1.3084632593290622
1.65677503301656,1.3385638256038512
1.65677503301656,1.3385638256038512
1.65677503301656,1.3084632593290622
1.65677503301656,1.2695934580438493
1.980527306739807,1.235506798870423
2.12708065840423,1.2695934580438493
1.7240598919564862,1.2695934580438493
1.65677503301656,1.2695934580438493
1.65677503301656,1.2695934580438493
1.65677503301656,1.2695934580438493
1.7240598919564862,1.2695934580438493
1.980527306739807,1.2695934580438493
1.980527306739807,1.4492258841505001
1.980527306739807,1.580157078709319
1.980527306739807,1.6732527261703323
2.0335237387945058,1.7764104686623112
1.9705887924139243,1.7787541990798903
1.9705887924139243,1.8601618908584188
1.9705887924139243,1.7764104686623112
1.8181623494740622,1.756112397135259
1.8181623494740622,1.5680687529092117
1.8181623494740622,1.5680687529092117
1.8181623494740622,1.5680687529092117
1.8181623494740622,1.5680687529092117
1.8181623494740622,1.5680687529092117
1.8181623494740622,1.5680687529092117
1.8181623494740622,1.5680687529092117
1.8181623494740622,1.4644769547152074
1.6836810464689498,1.314834887680636
1.657545931168733,1.5586712863789869
2.1306487092972892,1.5586712863789869
1.704536683653281,1.314834887680636
1.704536683653281,1.314834887680636
1.704536683653281,1.314834887680636
1.704536683653281,1.314834887680636
1.704536683653281,1.314834887680636
1.704536683653281,1.314834887680636
1.704536683653281,1.314834887680636
1.704536683653281,1.2202434235938167
1.8276490808984556,1.4856736556028627
1.8276490808984556,1.4856736556028627
1.8276490808984556,1.4856736556028627
1.8276490808984556,1.4856736556028627
1.8276490808984556,1.4454516858820956
1.8276490808984556,1.4002429670810599
1.8276490808984556,1.4002429670810599
1.8276490808984556,1.4002429670810599
1.8276490808984556,1.4002429670810599
1.8276490808984556,1.4002429670810599
1.8276490808984556,1.4454516858820956
1.9927983297557486,1.4454516858820956
2.2960869304589684,1.4454516858820956
2.367424583843747,1.4907296361832552
2.373764288343026,2.1481283995054383
2.367424583843747,2.1481283995054383
2.367424583843747,2.1727760280319846
2.367424583843747,2.272047106735421
2.373764288343026,2.272047106735421
2.373764288343026,2.272047106735421
2.373764288343026,2.3133595403941163
2.373764288343026,2.347849833494245
2.373764288343026,2.3133595403941163
2.373764288343026,2.2839419981833315
2.373764288343026,2.2839419981833315
2.3417979907129802,2.2839419981833315
2.3984459778503173,2.340903173731749
2.5147137545141147,2.347849833494245
2.5147137545141147,2.372579978761241
2.5147137545141147,2.372579978761241
2.5147137545141147,2.372579978761241
2.5147137545141147,2.372579978761241
2.5147137545141147,2.372579978761241
2.5147137545141147,2.4785481815178056
2.5147137545141147,2.7503322003899413
2.6165905042132183,2.8215978968367055
2.686020229800302,2.8215978968367055
2.661165506579622,3.3353599925679616
2.6280189485489722,3.5406883432996787
2.661165506579622,4.185076622473931
2.530012501242124,4.472135955000407
2.5292404181989343,4.539961066684686
2.4203129248267703,4.569691059782695
2.361111132393717,4.768591931104683
2.361111132393717,4.883276164093596
1.679782726882791,5.114938027075419
1.0621778616999547,5.338200359468357
0.9997004398042741,5.367062508802425
0.6148520557678497,5.367062508802425
0.5734361046300003,5.367062508802425
0.4303547052709055,5.438139963745959
0.0,5.420859109051331
0.0,5.096357777895703
0.0,4.407088738752238
0.0,3.5853187028723745
0.0,2.8048129219564983
0.0,2.063814517768816
0.0,2.0272706612470826
0.0,1.9299215739663411
0.0,1.9299215739663411
0.0,1.4197598347942015
0.0,1.1602517370977725
0.0,1.1144095887085765
0.0,1.0677511956196866
0.0,1.021738962034099
0.0,0.9890951910716339
0.7450212462770309,0.9890951910716339
0.8995802244734309,0.9890951910716339
0.8995802244734309,0.9890951910716339
1.067809943738094,0.9184180569896935
1.4269538392327257,0.8857627909585443
1.4269538392327257,0.8857627909585443
1.8062939071703492,0.7414250346346927
1.8345475340205246,0.7414250346346927
1.839271930011068,0.7414250346346927
2.0241312390950044,0.7414250346346927
1.950289715229174,0.7219374133127019
1.950289715229174,0.7200091336849528
1.950289715229174,0.6875243084156878
1.9888869194045797,0.6261714884484832
2.0077733396560227,0.6211770449034155
1.9888869194045797,0.6261714884484832
1.936892283834781,0.6261714884484832
1.839271930011068,0.6261714884484832
1.8373471680783273,0.6261714884484832
1.726126480719038,0.6261714884484832
1.6920191202165438,0.6261714884484832
1.636402372604497,0.6261714884484832
1.6280690457401545,0.7991042191290616
1.5866009445573033,0.847031380993727
1.530596515871456,0.9018619813452003
1.4585533531645904,0.926522558525933
1.2887730611140218,0.9489093525142485
1.1118415632242482,1.0036056794752413
1.0189195122516261,1.0398031794788538
1.0189195122516261,1.1153402345511176
1.0189195122516261,1.177256871636192
1.0125371523441227,1.21704575323509
0.8402986593524661,1.2619712151304903
0.8286585615868028,1.2927888313152633
0.8286585615868028,1.318963673338929
0.8286585615868028,1.3357935496465092
0.8286585615868028,1.7989880703681282
0.8286585615868028,2.3030137136450883
0.8343335939223834,2.6626647040285314
0.8361989091369564,3.5454163835508528
0.8361989091369564,5.138293875493293
0.8361989091369564,5.497060890940362
0.8361989091369564,5.69898097428401
0.871033988946416,5.806111874418386
1.0585644164908914,5.820067889662432
1.2862005011594317,5.86313492161941
1.447597471094147,5.870892662859009
1.489832677984569,5.870892662859009
1.516542136539247,5.867710909216022
1.5211637584170716,5.86313492161941
1.5499193180118283,5.820067889662432
1.5525032170866222,5.820067889662432
1.6874565161024564,5.820067889662432
1.6874565161024564,5.8364108887634
1.6832396196898456,5.760224101094505
1.6832396196898456,5.760224101094505
1.6832396196898456,5.760224101094505
1.5618598429474086,5.707755812750806
1.3074539243795569,5.642254348916844
1.3074539243795569,5.549675755949724
1.3074539243795569,5.353070619570086
1.3074539243795569,5.213432285551143
1.3074539243795569,4.951002553218311
1.3074539243795569,4.904530993927908
1.3074539243795569,4.904530993927908
1.3074539243795569,4.904530993927908
1.5296608457684455,4.904530993927908
1.5296608457684455,4.904530993927908
1.5296608457684455,4.904530993927908
1.5851028563015361,4.904530993927908
1.5851028563015361,4.904530993927908
1.5851028563015361,4.904530993927908
1.5851028563015361,5.4324579659660355
1.5296608457684455,5.607463262169371
1.5296608457684455,5.641795986823184
1.4433343971701478,5.6777947323014875
1.4433343971701478,5.607463262169371
1.4433343971701478,5.53145536463623
1.4724492429725509,5.441547534463104
1.573182366662271,5.360574588864095
1.573182366662271,5.143588053247935
1.573182366662271,5.139452004858604
1.573182366662271,5.139452004858604
1.573182366662271,5.139452004858604
1.5132119140026297,5.139452004858604
1.5132119140026297,5.139452004858604
1.7381311641383912,5.139452004858604
1.5132119140026297,5.139452004858604
1.266737617749576,5.143588053247935
1.266737617749576,5.143588053247935
1.266737617749576,5.2097476797707225
1.266737617749576,5.286586549847035
1.266737617749576,5.440989477371609
1.2447215951320851,5.464126023539001
1.2447215951320851,5.440989477371609
1.2447215951320851,5.286586549847035
1.2838193335632373,5.163309386655507
1.3794845019807371,5.163309386655507
1.3794845019807371,5.163309386655507
1.3794845019807371,5.163309386655507
1.3441451001001936,5.163309386655507
1.3441451001001936,5.163309386655507
1.3441451001001936,5.163309386655507
1.3441451001001936,5.163309386655507
1.3794845019807371,5.163309386655507
1.3794845019807371,5.46127145676676
1.3794845019807371,4.472135954999507
1.3794845019807371,3.6555070943560453
1.7419595289017922,2.7453728448057517
2.0590639447115744,2.544479429905066
2.0734695367698612,2.1245337263639024
2.0734695367698612,1.9925143764420794
2.0734695367698612,1.8373626637556069
2.081967167811941,1.8373626637556069
2.081967167811941,1.8373626637556069
2.081967167811941,1.8373626637556069
2.196621189095201,1.8373626637556069
2.2065854277818464,1.8373626637556069
2.2065854277818464,1.8373626637556069
2.2065854277818464,1.8373626637556069
2.0734695367698612,1.8373626637556069
2.04716337261228,1.9042258154817782
2.04716337261228,2.0256643106739096
1.9889915652764643,2.4767848350093598
1.9889915652764643,2.90115762081772
1.9889915652764643,3.022498915774253
1.7567606127281967,3.3191352835128134
1.714630501008054,4.232855530213734
1.5793739245287726,4.328111770616958
1.4201415590317839,5.226962710771147
1.4201415590317839,5.226962710771147
1.4201415590317839,5.159704286519188
1.4201415590317839,5.088976149108654
1.446826042405339,4.887240332457651
1.446826042405339,4.38599186471983
1.446826042405339,2.982758143820405
1.446826042405339,2.456654880519737
1.446826042405339,2.1526231219423484
1.7220263088444736,1.9795820758574443
1.7220263088444736,1.6573340904751053
1.7220263088444736,1.4960572894161204
1.8610389855867915,1.3351815704304029
1.8610389855867915,1.2028353963172993
1.8610389855867915,1.1866395020221947
1.8610389855867915,1.1420323125168625
1.829064986577884,1.1420323125168625
1.7220263088444736,1.1420323125168625
1.6093412846368085,1.1420323125168625
1.6093412846368085,1.080175641059436
1.6093412846368085,1.080175641059436
1.829064986577884,1.080175641059436
1.829064986577884,1.080175641059436
1.6527106322994058,1.080175641059436
1.6346873002735047,1.080175641059436
1.6346873002735047,1.0797116030128704
1.6346873002735047,0.8952356748228981
1.6346873002735047,0.8952356748228981
1.6093412846368085,0.8952356748228981
1.5804510310247128,0.8952356748228981
1.5804510310247128,0.8952356748228981
1.3765796924390892,0.8952356748228981
1.3765796924390892,0.8952356748228981
1.3765796924390892,0.8952356748228981
1.5804510310247128,0.936171954032134
1.5804510310247128,0.9866825092861476
1.5804510310247128,1.0268394502162188
1.5804510310247128,1.0540925533895622
1.5804510310247128,1.0540925533895622
1.6440870721767684,1.0540925533895622
1.672129880437157,1.081410849664237
1.672129880437157,1.0948873878453338
1.672129880437157,1.0948873878453338
1.672129880437157,1.081410849664237
1.672129880437157,1.1418662060989622
1.672129880437157,1.2509590943232278
1.5124097188240357,1.2509590943232278
1.369770559757387,1.1418662060989622
1.369770559757387,1.0057303161884112
1.369770559757387,0.9480962251828827
1.369770559757387,0.9480962251828827
1.369770559757387,0.9480962251828827
1.369770559757387,0.9480962251828827
1.4584196152019524,1.0057303161884112
1.3741087533829788,1.2486391156447043
1.3741087533829788,1.2486391156447043
1.3741087533829788,1.2486391156447043
1.6850356062819063,1.2486391156447043
1.755581473868416,1.488909911521816
1.8921013270823908,1.5181014385171054
1.8921013270823908,1.5284543376090043
1.8921013270823908,1.6163886954915698
1.8921013270823908,1.5181014385171054
1.8921013270823908,1.4896105764967797
1.755581473868416,1.4896105764967797
1.755581473868416,1.488909911521816
2.002712413731697,1.4696329555540024
2.002712413731697,1.364645923920779
2.002712413731697,1.1709761827802334
2.002712413731697,1.1709761827802334
2.002712413731697,1.1709761827802334
2.002712413731697,1.1709761827802334
2.002712413731697,1.1709761827802334
2.002712413731697,1.1709761827802334
2.002712413731697,1.1709761827802334
2.2969673936683344,1.1709761827802334
2.360285255462039,1.3940661908558065
2.3956499183012405,1.4854628597673907
2.6366174488148864,1.909595817503024
2.746539348565601,2.2109635775444536
2.746539348565601,2.2109635775444536
2.746539348565601,2.2109635775444536
2.6759223932981078,2.2601781434173613
2.5722673706667725,1.5877351360766616
2.0305676086567686,1.5360218778548123
1.6940651388281485,1.4043659148106782
1.6940651388281485,1.0293930356838334
1.6940651388281485,0.9591861966696467
1.439964377206655,0.9591861966696467
1.439964377206655,0.9591861966696467
1.439964377206655,0.9591861966696467
1.439964377206655,0.9591861966696467
1.439964377206655,0.9591861966696467
1.6940651388281485,0.9591861966696467
2.0079083648955733,0.9591861966696467
2.30600664423794,1.5048312912466857
2.4003460650639434,1.8459156033698865
2.4003460650639434,1.9575240804992298
2.4003460650639434,2.2567410462890662
2.4758039837004806,2.2710867948123012
2.5653747440981522,2.3248319534635518
2.7723435589255008,2.5077722503538844
2.7156941482081933,2.3084060660474703
2.5653747440981522,2.1799031677456617
2.568981944501534,1.9598675866559945
2.6969032302690525,1.9598675866559945
2.6969032302690525,1.9598675866559945
2.6969032302690525,1.9598675866559945
2.6969032302690525,2.1236003455038155
2.6969032302690525,2.1236003455038155
2.568981944501534,2.1236003455038155
2.5459583572784945,2.1236003455038155
2.1179927751140935,2.0540743579139864
0.9382386090303355,2.0540743579139864
0.9196620239315084,2.0540743579139864
0.9149128742734719,2.0540743579139864
0.9149128742734719,2.0540743579139864
0.9149128742734719,2.0540743579139864
0.9149128742734719,2.0540743579139864
0.9149128742734719,2.0540743579139864
0.9149128742734719,2.0540743579139864
0.9196620239315084,2.0540743579139864
0.9196620239315084,2.0540743579139864
1.193480042386006,2.0805441638316973
1.8115685026785286,2.085657997799998
1.9115021861569632,2.2463395422685153
1.915541104335669,2.728367583107137
1.978433472281025,4.160719739318491
1.978433472281025,4.166577198792994
1.915541104335669,4.1610778918864835
1.978433472281025,4.160719739318491
2.0944080967635212,4.160719739318491
2.150295462417357,4.118526283002228
2.175017523350122,4.134210140289119
2.175017523350122,4.134210140289119
2.175017523350122,4.134210140289119
2.150295462417357,4.134210140289119
2.150295462417357,4.134210140289119
1.8994238295789676,4.134210140289119
1.7831625839611676,4.1610778918864835
1.4823121848867329,4.333882568333093
1.2225449228940581,4.531373171023977
1.1787365055137773,4.675025705201869
1.0367163146379292,5.092907898239872
0.9352854052363292,5.323322965882359
0.7888091836197997,5.441127966220555
0.6625731964271879,5.374811259276109
0.6625731964271879,5.343303983589534
0.6625731964271879,4.80313003911814
0.6625731964271879,4.327883282016125
0.6625731964271879,3.45883457735323
0.6625731964271879,2.5867062961361937
0.6625731964271879,2.0065940333821612
0.5746226037445711,1.9652052188212172
0.5746226037445711,1.8422018690942723
0.6625731964271879,1.8422018690942723
0.7040688230777374,1.4353596681992373
0.7509681297864153,1.2721056265664323
0.7712342862349221,1.1812967061265371
0.7971371381186528,1.1812967061265371
0.8424866359893202,1.1225622938344795
0.8424866359893202,0.9991138892300779
0.8424866359893202,0.9991138892300779
0.8958046813312668,0.8641379996364242
1.2401186956824064,0.7906322038545254
1.2408441636528778,0.783689926135287
1.4115083103276764,0.6692351883088186
1.97479255748401,0.6488710750936452
1.9865893686422789,0.612960009811678
2.0226588612283716,0.58974308468917
2.035217079283234,0.58974308468917
2.0819501522470762,0.58974308468917
2.046371162236878,0.58974308468917
2.0226588612283716,0.5751279665230833
2.0226588612283716,0.5413056966593264
2.0226588612283716,0.5413056966593264
2.0055018640259252,0.5413056966593264
1.996046038820345,0.5413056966593264
1.9654915639691861,0.5413056966593264
1.8899551286641036,0.5751279665230833
1.8548310632665852,0.6530356610526472
1.7749868041225034,0.7034447733079506
1.5650706260549023,0.7034447733079506
1.56240539093122,0.7087426811441403
1.526575707217434,0.8103067873197085
1.524284252309867,0.910244730986171
1.4128729382048948,0.9450001695554553
1.3957636700709062,0.9489145000360691
1.1334362969405505,0.9763101342930633
1.1334362969405505,0.989111829043318
1.1334362969405505,0.989111829043318
0.9243078488363627,1.104166450773381
0.7258047497828362,1.1354847118637064
0.6523153242972998,1.1732790255168921
0.6523153242972998,1.478284772253517
0.6523153242972998,1.6686617423177879
0.6523153242972998,2.0944374670815233
0.7871770740000922,2.301653254372531
0.7885274850261722,2.5649334586067707
0.7885274850261722,4.09659331897008
0.7885274850261722,5.0746576268950765
0.7885274850261722,5.598012443125967
0.7885274850261722,5.76709767156582
0.8361971803463802,5.826328096651632
1.0097492545803854,5.8449676394326975
1.2660351654924216,5.856958388964842
1.436055192301696,5.864753857993725
1.4577524606859953,5.89125979226084
1.4843936772332949,5.860155849404397
1.5353745866534079,5.852774656946165
1.5503311365523695,5.837686287035602
1.663847792085943,5.809132252775892
1.8194677975811013,5.796319303492485
1.8066258155833153,5.763815533367435
1.8066258155833153,5.756987134430611
1.8066258155833153,5.756987134430611
1.8066258155833153,5.719181349220943
1.1512651179195843,5.6414805485258945
1.1512651179195843,5.55289519178985
1.1512651179195843,5.540420140667454
1.1512651179195843,5.347262494272732
1.1512651179195843,5.089233245011034
1.1512651179195843,4.952036971657934
1.1512651179195843,4.952036971657934
1.1512651179195843,4.952036971657934
1.1243733683647328,4.952036971657934
1.1243733683647328,4.952036971657934
1.2483704691693962,4.952036971657934
1.3572906642168114,4.952036971657934
1.3572906642168114,4.952036971657934
1.3572906642168114,5.079248938850697
1.3572906642168114,5.3220245477059995
1.3572906642168114,5.493890281865631
1.2921880536163173,5.594276454993108
1.1986092350941782,5.6661733586643015
1.122602471792877,5.64144878788948
1.122602471792877,5.533862017389284
1.1986092350941782,5.493890281865631
1.3572906642168114,5.44927399340583
1.5156632113535824,5.351967763149915
1.3654991671297267,5.261058751174373
1.3654991671297267,5.241843305045878
1.3654991671297267,5.241843305045878
1.3654991671297267,5.241843305045878
1.4230453389330253,5.241843305045878
1.6639509875535545,5.241843305045878
1.7466601097432939,5.241843305045878
1.7466601097432939,5.102533829961744
1.7466601097432939,5.078523906489901
1.7466601097432939,5.078523906489901
1.7677270575134856,5.078523906489901
1.7677270575134856,5.078523906489901
1.8706183877972498,5.078523906489901
1.8706183877972498,5.025426911742416
1.8706183877972498,5.025426911742416
1.7677270575134856,5.025426911742416
1.7677270575134856,5.025426911742416
1.7677270575134856,5.025426911742416
1.6697378476271985,5.128005908118102
1.32837037816972,5.1415801421305956
1.32837037816972,5.1601378958375905
1.32837037816972,5.1415801421305956
1.32837037816972,5.1601378958375905
1.32837037816972,5.135012855699373
1.32837037816972,5.135012855699373
1.32837037816972,5.127272543879594
1.32837037816972,4.973977747376734
1.6099836664160487,4.963038179243175
2.1662020084207882,4.963038179243175
2.086433524531522,4.963038179243175
2.1662020084207882,4.963038179243175
2.08207281506897,4.963038179243175
1.9542860782427214,4.963038179243175
1.9288907447024644,4.963038179243175
1.8431264452165936,4.963038179243175
1.5696057486090211,4.963038179243175
1.3175864467156728,5.323586813632523
1.3175864467156728,5.327783676739705
1.3175864467156728,5.323586813632523
1.3175864467156728,5.323586813632523
1.3175864467156728,5.323586813632523
1.3175864467156728,5.310503165651552
1.3175864467156728,5.218966727236094
1.3175864467156728,5.098504751247141
1.3175864467156728,5.098504751247141
1.3530173012953122,5.098504751247141
1.4148707199076236,5.0805047355182715
1.6445084448114369,5.0805047355182715
1.6445084448114369,5.0805047355182715
1.6445084448114369,5.0805047355182715
