0.5962753645926393
0.3201392270946669
0.19216429645312755
0.2777333567698902
0.3452516548036376
0.29873368230884706
0.22844553544664226
0.18260350700923303
0.1603659984224749
0.14650765272053387
0.13846571536104063
0.15201275999497624
0.20888180349360944
0.25106432882001956
0.28733920502275184
0.2720874292574832
0.21193630085582257
0.18486870784078646
0.24907647369944116
0.5814609950766788
0.5499563889142557
0.8822973997525629
0.7407763238981152
0.7501907372252825
1.023597926705327
0.929231774095399
0.7347169960820468
0.752310050545831
0.4981159802864578
0.40734634542553266
0.44290707533856477
0.36839162883765375
0.3564277249009776
0.2791935128208079
0.24387098800223128
0.20148228786734856
0.2031623276608894
0.15420812728841674
0.10283453745719544
0.09725686520765646
0.06550459558495765
0.1535310519819995
0.16618259823537318
0.16509718134780293
0.1243131347713322
0.1700768717328033
0.1881730567090062
0.15361306165764524
0.1364683473571073
0.08210048293239297
0.14260452458745576
0.15803146082572556
0.1824655188417089
0.2697059679807555
0.6212367812095532
0.9644357232111199
1.1227879944162735
0.5459669268003496
0.4074291506991325
0.263875730147515
0.39367765196703003
0.3580498167182932
0.42502769018498976
0.3443256460804416
0.26368518029614446
0.2780256540852574
0.20608349325819353
0.2081827623826822
0.20225084707190116
0.20054459025681692
0.24318156337025784
0.2481796910236285
0.21724869879921344
0.23598914785567177
0.27403295595969157
0.24481230178477137
0.2992468778265395
0.3182519348282516
0.4942657124277796
0.47594401566879074
0.5676276233869043
0.7683911755654254
0.6098375946554717
0.7475369984675378
0.8937568309488494
0.8983903269906015
0.986520398705872
0.9979494575071889
1.3864536911474596
1.1606656368093882
0.9720558508926213
0.8075823604252931
0.29873368230884706
0.6115365793098737
0.581867062428311
0.672249319066813
0.41657393577333646
0.501460330480794
0.5975990465842519
0.5276819647153522
0.4795088002165719
0.7277412258591184
0.3801591851302257
0.4104083278543369
0.41396488383405444
0.4484537379569834
0.3706306469058694
0.5279438147466536
0.500005826827717
0.43874509810876283
0.36119597744913334
0.5783325243528249
0.8508855447881813
0.9595930899102115
1.0247654340054984
0.9655418667710974
1.085402556644753
1.2135910946624051
1.1602727772796997
1.3131076470478835
0.9739990032694569
0.8567058140158464
0.7133112508625231
0.683889095871705
0.795491615023938
0.7765140364006554
0.7533003775677812
0.47775247889824335
0.5130290127463085
0.6224348609608976
0.7906116270723846
0.8557644987867586
0.7725120004926862
0.7276305371887867
0.8501554610577001
0.9738795462271261
1.1989972687325132
1.4353937006542874
1.1938082539790082
0.8474211582250222
1.134205824775696
1.1333298150527518
0.9803466691673287
1.2651290824901338
1.294272580347093
1.3529185777468251
1.2133774399990476
0.9184781380068131
1.4682727791400785
1.5318233379410193
1.3572764156791566
1.1767935928527604
0.961519659814026
1.1840579827481745
1.435610668332587
1.5751318893668924
1.8432790680831193
2.057937724496845
2.0057052158233097
2.202519672303278
2.2157091860818285
1.86714513516087
1.6508154276759404
1.5610217545095106
1.445666355256941
1.4214806935921032
1.3819686873561245
0.8940836484956135
0.5145150905199944
0.6348836291804518
0.6012087711331324
0.5280036370790883
0.37416753706780753
0.31035774603824334
0.4847065283953859
0.5184064227739937
0.5510988154151129
0.3750568137634905
0.6416508793902265
0.4810830402518685
0.5451171535456549
0.5798806903143091
0.6099211622784401
0.48225226142449285
0.43221229282953544
0.4785359406972117
0.6145514394508594
0.4209864844489313
0.4369015725470454
0.6030217310999874
0.5799756528171356
0.8378176381619157
0.6736607619079827
0.8766117620350441
0.7763915311493166
1.0360758325021924
0.9311125766836895
0.9033405753998818
0.993772396002949
1.2103186300528403
1.2168550113294128
1.1714729440076146
1.1161906105294126
1.0422414169499226
1.0854674333787022
1.2739102672305276
1.0819531256827006
1.081161676684975
0.9776288064824876
1.322243815415718
1.435460807789853
1.633764109243219
1.4450341684389754
1.7590260386388352
1.7513777604567813
1.624338508819028
1.4992539272517487
1.5690775584618546
1.676808674415436
1.7154081270219979
1.8615039191625085
1.4630026773978386
1.4262160953309027
1.656030663561849
1.4846464698204338
1.6617207036215824
1.435610668332587
1.4116149055294134
1.3342364295737539
1.3509182175430476
1.3256079622138413
1.4152327731306509
1.4726874364328613
1.6690247329152876
1.5312157900178762
1.3480270480123786
1.5103248203961765
1.218774796366818
1.5030227119322115
1.2674225949759867
1.0232061511310007
1.611783030891487
1.8112021132709253
1.414103452097068
1.384615336105681
1.2183311140729651
1.2464077864144334
1.2069397373694866
1.079731552776779
1.000874927104722
0.815345304319732
0.9033405753998818
0.8217909472114351
1.018266266034843
1.0453379798193627
0.8497537860901551
0.3754278667882947
0.44479380381581746
0.3972647176381271
0.5222947909470852
0.43670563669260315
0.6896934401573164
0.7398612362216908
0.7425190010682495
0.8499485377598993
1.0604393234893252
1.5845523108011537
1.63589199977762
1.4560275034051433
1.2251615791475294
1.4736676551431185
1.2739102672305276
1.0819531256827006
1.081161676684975
1.1976420481957357
0.7752444886716869
0.8314415476400219
1.0594385326719244
0.9633337482458639
1.0472023524148288
0.8082441975100142
1.2896527721688391
1.4743024300600511
1.4871253040262948
0.9979494575071889
1.5404254146857965
1.369451057164133
0.9938842891926123
1.436308152751689
1.4369940320000294
1.4687234511658684
1.4761600756809532
1.969468477138165
2.0598640847392407
2.3849811689574465
1.8569979942217538
1.3444585164529779
1.2459143996026831
1.1818013107900585
0.8574771549351664
0.8099234426454627
0.5897068544861942
0.38518318695647535
0.17658134506417134
0.1549545513794706
0.2869118938731593
0.42409503043688634
0.5242435409391636
0.5545727086154342
0.5760267955682948
0.5963453818079477
0.6649917606867738
0.6489402879343346
0.4635819365386183
0.31261572965384354
0.30277827032764426
0.5814609950766788
0.3750568137634905
0.5374840751945367
0.4168439579901875
0.5135705834888364
0.7649454684517017
0.84105709843501
0.6639237492547164
0.3914771382040945
0.3600180614469352
0.3749858243788885
0.3994115790017447
0.27236986436381166
0.2214376666772646
0.20268328326161977
0.17911824283693104
0.27102020511824304
0.2287732773238559
0.30355583782703827
0.25329988776136675
0.19416543525724916
0.19136410798404455
0.1645383783665464
0.14728763382205334
0.1400649891577533
0.1432898101092101
0.1663756674351363
0.2141839875966743
0.20392770430302598
0.21267338276432454
0.21315818635084147
0.26560998681743103
0.33259656264259874
0.5910084892679546
0.9644357232111199
1.1227879944162735
1.0787825465855103
0.6533929304239796
0.8371408591572443
0.7373474556537009
0.5150789728597518
0.6068855861250974
0.41965537241843515
0.2939271511221564
0.26857578644396807
0.1596111113087484
0.1725227731247673
0.16607307302605268
0.1810186892204133
0.1815788562877214
0.19924421518744462
0.1146013898201729
0.11666943343511472
0.09536677907871025
0.11457657800099098
0.13201923905454313
0.17497403963331437
0.20607780440771287
0.24295913102524855
0.24678358064351252
0.29343376907237373
0.4353712231831327
0.38225330297911736
0.41712393894516875
0.6158722726627744
0.8144097534787421
1.0852880144127381
1.457991286623437
1.8096059814433922
2.1803857391737713
1.2449576443653798
0.710401885487159
0.5121372010154573
0.4259720993078471
0.5244103499304195
0.5331971897260732
0.49940017589246893
0.5013212993985092
0.5896960262418107
0.6819270062160564
0.41657393577333646
0.501460330480794
0.4945086467896852
0.5276819647153522
0.4795088002165719
0.7277412258591184
0.6707227869684255
0.66813252861948
0.6218660708802327
0.6434176775519412
0.6878087877491045
0.7214113107584279
0.78926922870566
0.8334558655985301
0.710052819530583
0.7800786800295227
0.7505839812873903
0.6533929304239796
0.7725120004926862
0.7276305371887867
0.8543927069381348
0.870335685653253
1.341099655137709
1.6364690890343367
1.56539773656292
1.7815921865129813
1.3744611976676835
1.0985275539694865
1.3525044520011482
1.317759724190374
1.4596159362384427
1.316854701923305
0.9699725380646009
1.0397457442679865
1.2557240658247655
1.5219281666498656
1.3636737938267893
1.0216740260793218
0.8340632217897356
0.8106984665885498
0.9172148907833414
1.1160120444659059
1.0360381897165953
1.135031151689492
1.1741005616255153
1.0232356515092456
0.90591355615465
0.7719011333778419
0.78926922870566
0.9275450718022902
0.784136637939534
1.052720089014448
1.149625945652021
1.2846811831479632
1.3572764156791566
1.01122124136953
0.8501554610577001
0.9832060090631202
1.6034068064453615
1.5830266289678239
1.6838387692515528
1.141141241890227
1.3464022634269142
1.0683834925665203
1.0103347757773367
0.7778897954707416
0.6736607619079827
0.6722795118668662
0.6012087711331324
0.5280036370790883
0.46938449262858667
0.4763129603741503
0.40757465508199997
0.4638834663360885
0.5447130750024155
0.4899536912955263
0.4716634263928765
0.4214563133719687
0.47960113771116836
0.47627117196704616
0.5447130750024155
0.4899536912955263
0.37416753706780753
0.39241720096267996
0.40757465508199997
0.47627117196704616
0.5421474528684002
0.5086698905201495
0.5177360038835739
0.6581582868473026
0.6957180837898126
0.8372513991297109
0.9035180043087987
1.002027558620001
0.7973845163773136
0.7778897954707416
0.6784894622555703
0.9967837867267242
1.021459221326532
1.0360758325021924
1.2269746075074806
1.022694779732307
0.9566732410886207
1.195879415450234
1.428699993051383
1.4020425594391905
0.8220551886344438
0.75225928113434
0.7565408201354377
0.8379599845797036
0.9633337482458639
1.1377361218349438
0.8082441975100142
0.9825096993556727
1.1730761497934223
0.9443865864619921
0.9033217173285438
1.0534744857825071
0.8391142609532949
0.9204263845907934
1.092877950070164
1.5802870061902663
1.6459308346470662
1.7270132621202785
1.4900606111938743
1.0350052428349716
1.380131118684708
1.136905160284251
1.069229902733211
1.14641029922261
0.8125743254883396
0.6836461604016036
1.2245429091105566
1.6305973408691805
1.6775708450000268
1.4950733025469496
1.4293667550256666
1.164753574681126
1.1144045556404583
0.9443865864619921
1.0595256137133104
0.8231318302635295
0.8273349233772622
0.8334601459983569
0.9162618027575173
1.4279496760432773
1.4601235398788404
1.5708494000277329
1.4104315940140777
1.121490087841929
0.9820356020064964
0.941327842591136
1.1785985167871142
1.0229708192341347
0.801761193669433
0.7611446979328709
1.0621752221977216
1.736325361251833
1.5725303347567516
1.8107699877691226
1.860195181938293
0.75225928113434
0.7565408201354377
0.8379599845797036
1.050440008917925
1.1998019809413762
0.9873627763863646
0.7752444886716869
0.8314415476400219
1.0594385326719244
1.1678756192825812
1.431313774161698
1.3878281163953614
1.4676908606360135
1.6813861124539364
1.4918003998005318
1.0470790523625186
1.9341234742480393
2.616128764108252
2.4011083050997564
1.7270132621202747
2.062842492517587
2.22076304473567
2.03352412758321
2.1099837837619813
1.918196479751525
2.0701966780270626
1.7430207653533853
1.5180008554825146
1.6617207036215824
1.860195181938293
1.248738188759355
1.253453826425794
1.3814737703756406
1.350720295952969
1.3516142238762754
1.193967731546893
1.184375388276898
0.7521125880427432
0.8317955886598997
0.722758359153614
0.8437607950980748
0.9049212950956772
0.8818341515669689
0.49127274981323815
0.2094780401758391
0.17658134506417134
0.19216429645312755
0.16694410508833665
0.2388799507022289
0.2735852984448589
0.3049594035329125
0.30694645946619453
0.29925151942824635
0.2930271486276678
0.30534765208134845
0.25661570120828603
0.18486870784078646
0.24907647369944116
0.6341261846882077
0.5523070777490009
0.37086945504325064
0.48219194865041126
0.8470381922598629
0.621216341156428
0.5650854681691867
0.6639237492547164
0.4868456267318217
0.36326179023905497
0.25431226665217216
0.26216248354519894
0.2134512790396417
0.2135285314666918
0.18534897445030113
0.16416681934963445
0.1836773246611553
0.15420812728841674
0.10283453745719544
0.09725686520765646
0.06550459558495765
0.1535310519819995
0.15518527477877372
0.17148631651171192
0.23405380535729578
0.2436531459329056
0.2649016248784227
0.2140567767440358
0.25642523960789315
0.348931418401028
0.44050352399860004
0.6367601225690843
0.8631621886508781
1.7185555850067376
1.9402126140250182
0.8949679329890051
0.3804858853550278
0.43850675953422286
0.35943048132959815
0.3544933277138244
0.342288333275506
0.20898994672207105
0.149357420626936
0.1406191295589037
0.14079286349062714
0.17377215586208605
0.1146013898201729
0.1115512261547399
0.09536677907871025
0.11457657800099098
0.13201923905454313
0.17497403963331437
0.20607780440771287
0.24295913102524855
0.24678358064351252
0.29343376907237373
0.47196435417956517
0.34378102787971176
0.31338961102292484
0.3527995513236868
0.4889911172015344
0.6096289798341565
0.5973997405858563
0.7234913449042293
0.7367785055574152
0.5240502249714027
0.3792091502434336
0.4259720993078471
0.46360463846286765
0.563653793968877
0.4943990955786899
0.5254888280339796
0.3986349732397993
0.4493272566009115
0.4345956922733293
0.38225330297911736
0.41712393894516875
0.6148942777745959
0.8144097534787421
1.171092058360599
1.0904321106741468
1.2221749679461393
0.9516771666523982
1.2089101776960502
0.5815786885640072
0.7549571455206787
1.3300565122141588
1.3558084275715576
1.7280931156263104
1.168999728934075
1.042158802203979
1.1989972687325132
1.5472703221129267
1.5144943921088498
1.4041410514089527
0.9351692894462517
0.9186112518669437
1.1846207283589645
1.1860794391172278
0.9446919178533236
0.6247588069864073
0.5665345952932918
0.5228978085207473
0.9436038753951136
0.8951595819770454
0.9747187350199168
1.2016108449597112
0.9351692894462517
0.9186112518669437
1.0183271779362337
1.0523174674303588
1.071429000373965
1.0347887873997776
1.2043885206925489
1.0444154582170406
1.2523972872566387
1.2816521594468893
1.2173061594062644
0.9636684887999416
0.8957311506436286
0.815020070921082
0.8356339738652718
1.0167512928623408
0.9527682149834923
1.158331926447324
1.316854701923305
1.6243931182634224
1.8696761049715407
1.9596056792873309
0.9091457751239523
0.991426768068986
1.2543710100834202
0.8435680060309912
0.6525058202013088
0.6110301082135391
0.6548524534610562
0.7491190831746457
0.7651752296807449
0.7511333332576763
0.7296030424428497
0.6183470337341196
0.5421139152430315
0.72620251148363
0.7679676338473184
0.7015680261626136
0.4279045196298739
0.4454422562631648
0.47638771222762505
0.4209864844489313
0.4369015725470454
0.5815786885640072
0.7407763238981152
0.8702687391537289
0.8065196255626321
0.8732367023845158
0.7930774358110382
0.6408838657254299
0.48225226142449285
0.2246343008261522
0.3888518331912548
0.6145514394508594
0.7598508441621238
0.9022091915651106
0.815345304319732
0.9204263845907934
1.092877950070164
1.141141241890227
1.5811388300841904
1.5811388300841904
1.8550496845061415
1.568475318432581
1.5093678814499527
1.2901229368495315
1.1092856763978338
0.9089844248703153
0.963111459451178
0.8136841005770429
0.8373804836191665
1.1612781898350375
1.1383869611437554
1.0364949343063965
1.1521427050362936
1.1237327306881422
1.473331506368985
1.2483330613058166
1.1521075422635818
1.3189552725798457
1.0986487280506916
1.1947256752386666
1.8914115699263745
2.291884158720347
2.1476354096494386
2.517282370772109
1.8696761049715407
1.9596056792873309
1.2691560927460097
1.5405077483812202
1.311821152052779
1.0926338124366435
1.053053397082968
1.1133310269292964
0.9523928966110915
0.9332480390224339
0.9800188012183585
0.8546829775945164
0.8545254238760608
0.4965727090403459
0.8548908731816839
1.234224028088278
1.3799290470048777
1.453650099442643
1.2858745530413278
0.9566732410886207
1.114556425150706
1.0303104079658139
1.0683834925665203
0.799504520167777
0.8481955325437612
0.9825096993556727
1.2026175146857236
1.518869731547885
1.1280553498964894
1.3450584903257712
1.4378491242809954
1.3284062222068482
1.1998834164941594
1.2317407530618976
1.0640515563619262
0.9646947709696654
0.8539285519483735
0.8437416273314968
0.9661629364175736
2.145917720394262
2.8249739715022435
2.765371841062327
2.243923863904215
2.290776140239355
2.5364476011868318
1.7240507708973665
1.2422767365764515
1.1511001268667787
1.3507202959529687
1.5312157900178762
1.1144045556404583
0.9935636349136228
0.9033217173285438
1.0646703647863753
0.8192084204093074
1.1040197495918185
1.1237327306881422
1.3648307974895775
0.8452660912237033
0.8195458390505372
1.1444349088340755
1.2524900551425693
1.3123039354038815
1.3064522895226818
1.4539791432265297
1.1121829453996208
1.1511001268667787
1.3507202959529687
1.4992539272517487
1.3984041897198793
1.4617835697247006
1.0353072920009216
1.189579929650057
1.3505986039335298
1.2815292893838357
1.1406261631235315
0.6109290347095067
0.5447813208617434
0.6495762258681276
0.5264876628636438
0.22844553544664226
0.14211800581869594
0.09002850966456247
0.1384144311851166
0.3853601467346324
0.5545727086154342
0.5760267955682948
0.5963453818079477
0.6649917606867738
0.6957223274903116
0.5619011858492334
0.31261572965384354
0.34341446693478894
0.5976714204270587
1.0453379798193627
0.9413897773909412
0.9109083712976245
0.7684880676599152
0.993772396002949
1.1493698595099078
0.7347169960820468
0.9035180043087987
0.7154041671510011
0.5886187229925657
0.4886905832747708
0.39226837610830684
0.3715132054506154
0.2931970310438271
0.23446341658294173
0.1782569934457421
0.18534897445030113
0.16416681934963445
0.1836773246611553
0.1642846772192104
0.14640545689444917
0.1499541739374349
0.13195498029388314
0.1364683473571073
0.15789454355668944
0.17952761837785414
0.21315818635084147
0.31485953195209543
0.4057893830264518
0.5691048984975098
0.6927143006030848
0.8214475362287851
1.3315054571716824
1.35644881783121
1.1086354206450406
0.7407912422569505
0.527891807057301
0.4030193983322686
0.31417121786620444
0.2981365754737566
0.20608349325819353
0.2081827623826822
0.20225084707190116
0.20054459025681692
0.24318156337025784
0.2540492869237577
0.21684570068837425
0.2545842363519309
0.24481230178477137
0.31852214377282395
0.25698063812969546
0.2992468778265395
0.32833446895321394
0.36948309634075716
0.44308782218053616
0.5642795076072081
0.7668054892217947
1.092704153840216
1.5355074927257872
1.227613272943419
1.4279619194018933
1.1064497519941745
0.9216012940321587
0.7381238838285074
0.5185825611162893
0.45182531301811324
0.283264242820902
0.2862747980941135
0.2967181724101641
0.45146569643070733
0.5339167117106262
0.6168160397716672
0.6483869568896702
0.7411497944085456
0.7914945168694906
1.1359236684941305
1.2842409537067092
1.160778241113666
0.8141217029065099
0.8194366358047769
0.7917847250702055
1.2892557949797254
1.161007368732218
0.918050298780568
0.895600354929568
0.9661777594618752
0.7965259103210942
0.9109650839196238
0.6119320785080234
0.5681351306293756
0.7504141448015009
1.1810807951087665
1.6078771830247294
1.603124905259403
1.3984041897198793
1.1482969097488989
0.9220380248228247
0.9158815365742927
0.8791437023529445
0.8972771132602138
0.9240095844591013
0.639071527779052
0.6169717868857494
0.7553840464907305
0.7765140364006554
0.912995174712506
0.9010746517326211
0.5780663928587075
0.5048577509388474
1.161210358345773
1.3617313255942218
1.187238549670185
1.0347887873997776
0.9893238839404247
0.7826596280740235
0.7283919642872505
0.8728203050852394
0.7340023387898522
0.6039877276239011
0.429896382840268
0.4531206803491749
0.5628069701010635
0.7125848419646298
0.7099048073108548
0.5386370714370731
0.5493939306683258
0.5447813208617434
0.6154141107584847
0.666429994573837
0.6884962810597669
0.42513769162998616
0.36119597744913334
0.49913795569053776
0.3706306469058694
0.5967536807792434
0.8252017680190343
0.8272832779878829
1.2036587907140635
1.240659526529183
0.814443750174768
0.47124143844277855
0.2995681330007646
0.42577534779693543
0.44704898728961207
0.3770130385839312
0.4556740071535884
0.48345683744428364
0.40217115545641274
0.3781076888841137
0.5126447905326794
0.7000439751134465
0.7280080604938818
0.6318803335843267
0.6538214266422041
0.7589659683342743
0.6586466070379089
0.595333792963556
0.6120530585983823
0.5094382113530068
0.47960113771116836
0.6092282451828481
0.7152480363560783
0.6003248110487227
0.3754278667882947
0.44479380381581746
0.3972647176381271
0.5222947909470852
0.43670563669260315
0.9480229872706493
0.9855229332159834
0.9944363937940129
0.9739395762368028
1.1403579898360108
0.5003226518550298
1.3110110124207495
1.3796165190909384
1.204680422205965
1.380131118684708
1.136905160284251
1.2809000846451033
1.2646999319168226
1.181583691916562
0.9873627763863646
1.1081104743106807
1.4054149751901408
1.3694407635851418
1.43626639372825
1.2403211647401347
0.8616928710864384
1.1476704739957424
1.4810305415259692
1.8127107197418604
1.72825416746029
1.7475846456821713
1.6237770775157663
1.5089399371591772
1.4077048273084867
1.662598895937097
1.8920154039700954
1.8887947547108728
1.1293791039307794
1.3016590039883018
1.445666355256941
1.4214806935921032
1.3819686873561245
1.6080085078488093
0.9938842891926123
1.436308152751689
1.4369940320000294
1.4687234511658684
1.4565951570845344
1.35246127896081
1.2854869460578602
0.9091457751239523
0.991426768068986
1.2128980660540607
1.0646703647863753
1.032181953798087
1.078805161794441
1.1772085777534627
1.1916549122265456
1.3694407635851418
0.5003226518550298
1.1283001089326758
0.815012563834574
0.9429952876910302
1.1688028865047142
1.324532357065043
1.566795049112082
1.2998213378725907
1.3284062222068482
1.1998834164941594
1.4729885627129569
1.3304230781241995
1.414103452097068
1.3534752272415485
0.9944363937940129
0.9739395762368028
1.1403579898360108
1.018094676211051
1.2191137247670072
1.1040197495918185
1.0350052428349716
1.3480270480123786
1.3006734526335253
1.124713665818065
1.1746760610385543
1.5941031090855295
1.5856040207383686
1.6553914462692616
1.8569979942217538
1.3158009863843538
1.7618060088846668
1.7618060088846665
1.6148594635997173
1.253453826425794
1.55057302869148
1.6295732439598647
1.662225460835724
1.4513782569597697
1.2251615791475294
1.3618758480378834
1.4726068471278793
1.2673350214586112
1.0109295731144647
1.0183271779362337
1.0523174674303588
1.0692299027332108
0.5151349684327279
0.5130290127463085
0.5240502249714027
0.3804858853550278
0.3506933700594762
0.20699856331460484
0.1549545513794706
0.1603659984224749
0.14650765272053387
0.13846571536104063
0.15201275999497624
0.20888180349360944
0.25106432882001956
0.28733920502275184
0.2720874292574832
0.21193630085582257
0.2506805161840091
0.3605943712935385
0.8564700606422151
0.8887831905492791
0.5523070777490009
0.5799756528171356
0.6666574823620931
0.6725349392780665
0.6010304145246552
0.5358570438571566
0.4090461150685553
0.27236986436381166
0.2214376666772646
0.20268328326161977
0.17911824283693104
0.23215390373989067
0.20427659802999606
0.16909817383366438
0.17718560502897698
0.1641966037893673
0.1642846772192104
0.14640545689444917
0.1400649891577533
0.13195498029388314
0.14024557477426175
0.15789454355668944
0.1748612134065128
0.23367378192068822
0.24001587430695723
0.29051044620275707
0.36359460978863767
0.6325873522358889
0.8195953367131704
1.7795259922513156
1.1073017241941252
0.5260593357863947
0.39354811953023633
0.2939271511221564
0.26857578644396807
0.20898994672207105
0.149357420626936
0.1406191295589037
0.14079286349062714
0.17676107216781925
0.14143756325359197
0.1115512261547399
0.1235590050349719
0.15847848950486634
0.19179443784078148
0.22622603627796653
0.3133749343175208
0.37881208202676964
0.3986349732397993
0.41720926850220624
0.4345956922733293
0.6009752614326019
0.6369915809393465
0.4552744894542292
0.5119890138434506
0.7400994732740571
0.7824421713389553
0.7718852846467852
0.842156679055753
0.5418186927281764
0.49561990850670007
0.4593145139284604
0.5510695612064421
0.523605607028382
0.47775247889824335
0.5358253579671247
0.47557243142258027
0.500360767006178
0.5279438147466536
0.500005826827717
0.7171644681025241
0.6185605176132515
0.8206992861607186
1.1103023398279646
1.505158642713525
1.335604468008453
0.9755302654738421
0.827402028864218
0.8739906247125399
0.7030052514138627
0.9281135490835309
0.9407967833997988
0.613915833983212
0.6093315635867433
0.7533519991610343
0.7965259103210942
0.9109650839196238
1.166202216998127
1.061285730934766
0.9286239665221071
1.2511580485880605
1.1445124931557964
1.0264583773281182
1.3926835956233703
1.2425324501478467
1.119930337195356
1.0641755459789048
1.422539443669359
1.050671015318763
1.0661751189408042
0.8473964568794197
0.683889095871705
0.8500664299914807
0.6523159563015003
0.7636833022702058
0.34378102787971176
0.31338961102292484
0.3527995513236868
0.4889911172015344
0.6096289798341565
0.5973997405858563
0.5895205216777702
0.8016754066613575
0.585160458269358
0.5573833238088146
0.5960681112309291
0.5648713030756383
0.779618042140724
0.8114615293321921
1.0813250566727157
1.2091330580116872
1.0641755459789048
2.2757210066502886
1.870910412561378
1.8679371435994592
1.5797636160131434
1.402821608108558
1.5822487679749238
1.298500093196124
1.0358906341699363
1.127164510019334
1.1161754057719109
1.1226188358023501
0.9520105200335081
0.4847065283953859
0.5184064227739937
0.5510988154151129
0.5306419353620697
0.5793067743334621
0.5094382113530068
0.5220102986609086
0.5503452701325272
0.6876952317447077
0.6255480330883111
0.44903403555840904
0.2246343008261522
0.48345683744428364
0.4685033094044319
0.3781076888841137
0.5061822606257014
0.51575595457351
0.41641506144372675
0.31035774603824334
0.4549920866550337
0.5093615976080285
0.5499563889142557
0.7685202369492108
0.6910710557269889
0.8522791196799606
0.9435552819240627
0.9083110949272145
1.417483989842201
1.4315837545585874
1.2077172701375471
1.1302692726811119
1.07585288983558
0.9083110949272145
0.9625524271163922
1.0504214907118967
0.8713642622663769
0.729365519168101
0.7708017848933917
0.835871817445329
0.8706044023609886
1.1350311516894922
0.8923571562546208
0.9430028925231335
1.1770120323408864
1.8692029920110689
1.4143359374141866
1.1410393067345643
0.9769077238578326
0.8920440215152688
1.0798845252662852
0.8474960431815198
0.8452660912237033
0.8195458390505372
1.1444349088340755
0.9776288064824876
1.4479485030493167
2.162123825422952
1.5202659330846864
0.7511157236466439
0.7283919642872505
0.8221175856632044
0.7533204703584852
0.7686607219252206
1.043599589430161
1.0813250566727157
2.290776140239355
1.4348601864638797
0.8812770275374179
0.6431908442613153
0.554361715331967
0.5045277960565238
0.48099984166916465
0.5564614553004862
0.5866351882906845
0.5161443978975561
0.5421474528684002
0.4354587029319358
0.5177360038835739
0.47440288502653616
0.6957180837898126
0.9091353732921377
1.054130903494046
0.9378135995516097
0.9469947269535793
0.8379364145350313
0.8548908731816839
1.2451612913397747
1.570177714163114
1.570177714163114
1.4791677348078396
1.2171220383302086
1.0470215101911777
1.3219683871740853
1.417522698719082
1.7331598447825327
1.6640325096506619
1.3624564293383494
1.5862399974903552
1.679895821348438
1.6104093996503073
1.402821608108558
1.5822487679749238
1.4353138900957887
1.4743024300600511
1.3077377319027268
1.2617116512717725
0.988310501072453
1.3525044520011482
1.317759724190374
1.4310167187598248
1.2488205274936677
1.867239437304083
2.288124902807372
2.4580794369843626
2.0066229738743724
1.7761990730858637
2.0806993299654293
1.7033781215518937
1.3414949154113172
1.3324108217721058
0.7719011333778419
0.912995174712506
0.9010746517326211
0.5780663928587075
0.5048577509388474
1.123385778932994
0.8895319073890704
0.9995807476646755
0.7843794507044556
0.5211354889577927
0.2599903222395801
0.14211800581869594
0.09002850966456247
0.1384144311851166
0.3853601467346324
0.6278077101622557
0.8474960431815198
0.986520398705872
1.1846870725782925
1.5258266190928125
1.1606656368093882
0.9720558508926213
0.8075823604252931
0.3077326459796177
0.16929584874009804
0.27870607635488215
0.6096965479800373
1.092704153840216
1.0904321106741468
1.2317407530618976
0.8449879078402397
0.44290638054730314
0.2902451440121332
0.17961093523401694
0.1243131347713322
0.08210048293239297
0.14260452458745576
0.15803146082572556
0.1824655188417089
0.2697059679807555
0.4866141565423514
0.6334918735979056
0.994721632054995
1.96946725824108
1.017788141313848
0.8183179179573197
0.7594961236106187
1.4821856937866553
1.7187704292881456
1.4736676551431185
1.3648789353580018
1.2280666216368608
1.253542279899207
1.0857411566245863
0.7232669523732076
0.7606969290070239
0.8874227487336617
0.6184454869699034
0.6896934401573164
0.7398612362216908
0.7425190010682495
0.8499485377598993
1.0604393234893252
1.124713665818065
1.1746760610385543
1.1369908109828908
0.4965727090403459
0.7465780446992121
0.9258226085222595
0.9089844248703153
0.4354587029319358
0.5283019757037375
0.47440288502653616
0.7750440967603539
1.19606365829126
1.426825841352526
1.5059476548608897
1.2412812620119282
1.1672150479595091
0.9244145392380968
1.1201265278359205
1.07766489163414
0.9361438166700877
0.9006453986088452
0.9747697518431506
0.776220288933175
1.0207398438485296
1.2246470169574133
1.153159469276539
0.8220551886344438
0.7626249482349154
1.0358906341699363
1.127164510019334
1.046062379305175
0.801761193669433
0.7611446979328709
0.7501907372252825
1.510032239379086
1.6814860529406082
1.7978069826647658
1.6585508722635116
1.4358621382174976
1.235065759245544
1.6277352122796147
1.6857687281682892
1.1802913102814503
1.1652325019161394
0.8895319073890704
0.9380148158202101
0.6119320785080234
0.5681351306293756
0.8668062199285451
0.78400695408972
1.201152763638511
1.1260190761824822
0.9877179454808053
0.8183179179573197
0.5713303294514921
0.6648485972922189
0.5533193383726794
0.5679433281586651
0.6039877276239011
0.5360974444650856
0.4531206803491749
0.444576542447175
0.44787841744944
0.4339945145499433
0.5972244970399981
0.5673737129297586
0.41720926850220624
0.38864498500687394
0.3456726866541023
0.3908070061392201
0.32490897585917183
0.38424643389830604
0.45185948549181165
0.28805901328198197
0.3641136142965685
0.44931650047568394
0.3801591851302257
0.4104083278543369
0.42488701203929474
0.5356342349682376
0.716968801627494
0.6971752827122439
0.8223865077913672
0.7232042505855093
