0.9785190724576008
0.4359289713666621
0.4159423853395146
0.5255878611883049
0.616764941376875
0.4899249551404178
0.528107119995505
0.41398083893664533
0.1880756263348799
0.11826697066858716
0.13611544511406748
0.1693409390659875
0.17297774717961065
0.18847195675368505
0.21131960303660569
0.20235119546099042
0.22382342755612297
0.23263319322996764
0.21118811219651606
0.21365292362728472
0.3968222571767856
0.34259506926052397
0.33620496098427494
0.367419117445062
0.2546341960962874
0.36518063972251014
0.3866174759094574
0.35730832523067285
0.3011096300915058
0.2620343047228606
0.2823265363736366
0.2107341213848402
0.42102053515590393
0.3348354214666269
0.374441716718063
0.29805279669245954
0.3647108876963948
0.32049162368235307
0.3630820099026487
0.43056816873009934
0.28657273195689725
0.3077990338182079
0.39498903443049743
0.44104400376174374
0.41329882907672993
0.27420691670086733
0.4191959276633734
0.3435794351502819
0.27516995227740837
0.20366848777184346
0.18281966671285207
0.2363464597955095
0.19787243518393036
0.16970389013054765
0.22854135026728878
0.2640296966142742
0.22625873710944178
0.21335750358905253
0.2728751007398597
0.27148963543232846
0.26088487448250935
0.25378700777020763
0.2692862694184374
0.2552179226393153
0.2617865033997901
0.39498903443049743
0.4849335496032044
0.8519781543699669
0.5140123888537517
0.3140853274634745
0.24099198621099138
0.17931329136783952
0.15678799428088236
0.14414592908375454
0.1284154802615813
0.14702793243196954
0.12305699235066389
0.12062791950561962
0.10631916819778069
0.10593665687158905
0.10883861237917815
0.1273711132015078
0.14136385708803875
0.2090208116564869
0.18201467821619027
0.33652230897185054
0.4640983650419682
0.3225475425655907
0.33809807246397183
0.41505500600746154
0.2867794100088356
0.24099047203250154
0.22183641674910465
0.21583121373898043
0.22673533400545898
0.2375375153502295
0.2112706059984377
0.19638195574477743
0.16454958919161072
0.2126842707148777
0.3525733370749182
1.0001877103618895
0.9795073469667698
0.8695252113936079
1.079050752744538
1.0643732737515552
1.0327145944629408
1.0327145944629408
0.9686288910108168
0.5645755050977111
0.9204956442791344
0.8498115028938773
0.8315426560647086
1.047419469784062
1.0798206783630262
0.9169052971191164
0.7745249915271835
0.8622556915393423
0.8860686850078004
0.793264679383809
0.8931653872684864
0.6634818887899961
0.5767399050343084
0.6048067157283173
0.7697927013611464
0.8756743649347223
0.7328767305633694
0.6850498963731477
0.5006099953379843
0.5864676246510934
0.5954865497840925
0.6134570681353381
0.6543927261941068
0.7685536478313914
0.7208247100723186
0.7661899088087517
0.7160890834274519
0.5533852386993
0.8237229363492536
0.7220343668751371
0.6994646147112229
0.5817507262935124
0.7355467824815423
0.7597838868154622
0.6354985120489731
0.5842108187371192
0.49293407698665054
0.43278320295057054
0.3680251580901681
0.533097654723097
0.5170521884916421
0.3745433833502839
0.27149701920491454
0.3416925446420136
0.3752300650269004
0.5008776626618985
0.5600002169653986
0.8738520951844702
0.842012589284585
1.4704292441876181
1.625197678886436
1.3324097653708706
1.3842118323130854
1.3204440070968606
1.1849540932635334
1.0640820074197122
0.7475804784421987
0.6413560589699028
0.8631138470495823
0.8460477676144207
0.8898601219310254
0.7597392054637928
0.509059558655127
0.26067191044877774
0.486953394408507
0.46793658088325246
0.8693811418919059
0.71401039769102
0.7193132008255108
0.6374295025426487
0.5966210942330515
0.6552230114164934
0.617296702148725
0.48234839967094556
0.39910152207939725
0.2590516154627877
0.4169380236632005
0.31478685262461864
0.4424469206565281
0.47703629328580394
0.47337729318645333
0.49585219208519454
0.5628437548650097
0.5881899160512659
0.5853329976558691
0.41329882907672993
0.37984302255649266
0.48553381883811814
0.4480281131693347
0.4729871134719703
0.5470603924884818
0.609951308947575
0.5266887106479524
0.5021716191280342
0.8264637067331082
0.8460477676144207
1.2606488872714277
1.045866133637974
0.9436233234424225
0.8552578358985727
1.402789671264716
2.0845226388795766
1.9890669734856978
1.4837165258564475
1.823406963154488
1.6333171855881057
2.1601118229053706
2.3490704117630843
2.1563302189455262
1.709312353960114
1.765814337781428
1.566398355575345
1.6722915318974387
1.1400208284329518
1.185607529032418
0.9770057211545784
0.9295063225502896
0.8281892768959759
1.148479223879486
1.1761466680283712
1.3394520811651027
1.4137162321992411
1.3180092827130117
1.602645897301496
1.8700962702115913
1.2492025344194968
1.2097067381507516
1.262818848336571
1.304445577756093
1.559420012967108
1.7619766260046372
1.1817964573412316
1.3844668707296581
1.5319537439688926
1.0693631909116834
0.9441766701930407
0.9633349551575412
1.2769932526103032
1.317200478921322
1.3862836881663445
0.7696408631980818
1.12684340310328
0.986315486253519
1.0599978800063592
1.1507515757640858
1.0430338689879455
1.1623115241406057
1.1928477006512903
1.2792334503019154
1.1053875527461352
1.1900484025484168
1.43315616666892
1.3281605019461826
1.266037777979936
1.1695301702085226
1.0054239552947979
0.8594005859155089
1.2890776762076888
1.1365100645453412
1.0328508366154934
0.9946915115559043
1.149136952567668
1.1671772755084187
1.185401156301445
1.1211141634705795
1.1886683265198017
1.1695301702085226
1.0054239552947979
1.0910894511799623
1.8524747254442422
1.5762329493221738
1.3010633038690447
1.2696490530839328
1.4404293836889621
1.4396011256369803
1.8030900079009151
1.5971810984097405
1.5141397450305025
1.2492025344194968
1.2097067381507516
1.262818848336571
1.304445577756093
1.636915368707628
1.797078231116158
1.805139893305419
1.7598053600980041
1.5046836853780006
1.4560076717147514
1.8749425258738548
1.578012235359978
1.6824708651493
1.1734347374426073
0.667844347854878
0.46305709370840814
0.37304394222368126
0.1624178269000353
0.19184082455295035
0.23144780431599046
0.25525750545412285
0.2755142676708395
0.2918576854164337
0.3118118002788166
0.35314653795540935
0.3666555109696167
0.30866333714517413
0.17301029171962515
0.15477286234721915
0.24584168386529506
0.5574584884512631
0.41031791536000956
0.4323213717210061
0.43195949767233943
0.3783654978472203
0.3324602155573643
0.22493118695701422
0.2513248573785896
0.2903082257950807
0.27896259397747997
0.28218493917884024
0.29836135282610265
0.3282899336846422
0.19339410299451545
0.23086151532160543
0.2186408085266281
0.22365299114197698
0.26930560907111895
0.25033258679391013
0.23915788697262888
0.27615828585994406
0.27797399824456914
0.2873586390687924
0.3379330814386103
0.2590516154627877
0.2722111169921387
0.36162482141876007
0.26310011620797075
0.31667054463139843
0.2543222089536699
0.22873247921744
0.2114505901302948
0.2026115434310122
0.20563246005212804
0.19396215052419677
0.17844443107683983
0.19104005931882945
0.18429849298862425
0.15506013943206265
0.21595764900214567
0.20663731658218837
0.22174385440210584
0.3732346027476789
0.4849335496032044
0.6992807827128679
0.6701075292888112
0.7361187330015126
0.456775715086776
0.35231734808212245
0.23886637372280303
0.18353832243411877
0.09757798697127663
0.092536925693488
0.09763804058929718
0.09989721452106005
0.0987588142909554
0.1005404760759722
0.09451054704946339
0.1615407827516377
0.18720470580122303
0.2232425688483235
0.2542534633265413
0.27757171237480566
0.25992246129224444
0.32780347846390995
0.38713242004366066
0.3152563780183152
0.30140119570063273
0.2665419057520901
0.2615720063127045
0.2555762509775812
0.32005574906160217
0.2663032363836998
0.29752724001883507
0.25992246129224444
0.32780347846390995
0.41719863814829533
0.48563387727465
0.5546761358821335
0.6582476553729824
0.9235728738766673
0.6696457328095838
1.0232455489782284
0.9504411809277276
1.2080711161742175
1.0538217780654093
0.8112187031796516
0.8815994251273226
1.1597508660153952
1.3545843091795824
1.1616654539232294
0.8427361201823445
0.6820671362408415
0.6950852255458784
0.7849658325788091
0.6530823165310241
0.9686288910108168
0.8613860262377453
0.8671249991629165
0.9009576913520112
0.8315426560647086
1.0135395094500874
1.0426580689105025
0.7210734590111478
0.6617613991639283
0.5687595388530884
0.67998171026731
0.6530823165310241
0.6480492536863491
0.5593802335637811
0.5208134293543779
0.5905165771368731
0.5338813306860388
0.5188588882576849
0.667637356856541
0.46843116140086555
0.44630483493201895
0.5315352199584058
0.6647045268109303
0.6663241316318305
0.6519548064378742
0.5334353996395628
0.5897160035670967
0.4370575761315704
0.5069230531726724
0.5188588882576849
0.5369898602329435
0.4609620076245994
0.4341835987061114
0.43278320295057054
0.37717173070482746
0.533097654723097
0.5170521884916421
0.3745433833502839
0.27149701920491454
0.3416925446420136
0.3752300650269004
0.5008776626618985
0.5600002169653986
0.8738520951844702
1.748712636273213
1.8172185850017397
1.18761124830373
0.5046385192444638
0.6911741922287975
0.808169440385732
0.8244103906840966
0.4051188531008136
0.509059558655127
0.26067191044877774
0.483778067132761
0.5526642186923643
0.5272515782454136
0.4191992721518834
0.36109877288175835
0.367419117445062
0.2546341960962874
0.36518063972251014
0.3583949054548153
0.3847366218495041
0.31905595004960313
0.23222485127320544
0.3647108876963948
0.31478685262461864
0.3700964263114753
0.4349365106781398
0.482220267069507
0.5712087094287137
0.5630195806171918
0.8811018884581165
0.7189856000279917
0.6789845812362514
0.5856068532862866
0.5998382688247685
0.750809016699959
1.0971595119083701
1.1246979399807189
0.9445134797864917
0.7361712966754175
0.7652890029180281
0.986315486253519
1.1464414457637895
0.9591861966716984
1.250018815964202
0.9625661569829798
0.6371064899268054
0.9946915115559043
1.149136952567668
1.0742334501247484
1.4336238273054183
1.2725943140935105
0.9943768108763913
1.2286691005035517
1.3276350045860164
1.217635429255072
1.1484792238794854
1.1567232878600535
1.161346416605214
1.3007921872467885
1.198850621045017
1.147718584944699
0.96902691960331
0.9618075102801743
0.9295063225502896
1.5867094691707553
1.5345796544162926
1.4926133647457192
1.5226253430699626
1.777046633277276
1.2497468191453531
1.287887853791611
1.287887853791611
1.0296644802681587
1.0927375084926076
1.539007429851797
1.013081457233191
0.9738650377164161
1.1688152403600978
1.1507515757640858
1.0430338689879455
1.03702205176711
1.2080620410533331
1.461926506297646
1.6080085078488104
1.750050842677201
1.9585691090361197
1.3738696036969347
1.3873816319201289
1.370891327534399
1.3622046229614815
1.4753237080436705
1.4214806935921027
1.5461624599479171
1.4177003012361242
1.205566357458325
1.3829730623340055
1.6913946407523601
1.082562405103468
0.8612772311796669
1.1117413302461574
0.8955909135627181
1.1761466680283703
1.4931623043819562
1.6535040466987163
1.38407795965131
1.4354534715545897
1.4277670862450624
1.2491080041066402
1.1529633613210426
1.0579899647790747
1.0579899647790747
1.3865287045154593
1.2386188719064668
1.2386188719064666
1.3001428273821773
1.2905080624453937
1.0210809261184333
0.7963708311289044
1.0704280750236308
1.219983234337053
1.2605315711090503
1.018266266034841
1.0422307253992824
1.237404075088051
1.3431361072518955
1.6763034293225783
1.5982592030791065
1.6569144582337814
1.458193063527731
1.1540981359186062
1.1103720403611994
1.174632788645105
1.0958321704195868
1.0387465571141428
0.9687295355859367
0.9899755313787238
1.2642198190467346
1.1362888543289191
1.2360142575934372
0.9279142962721207
0.8980265101338751
0.5867399673575279
0.6445182235753637
0.528107119995505
0.3826511055290922
0.1880756263348799
0.1624178269000353
0.11826697066858716
0.13611544511406748
0.1693409390659875
0.17297774717961065
0.18847195675368505
0.21131960303660569
0.20235119546099042
0.22382342755612297
0.23263319322996764
0.17301029171962515
0.15477286234721915
0.30254053018467486
0.31135228123208253
0.22365299114197698
0.25183986913451234
0.2776847966017354
0.2363464597955095
0.19787243518393036
0.18648618155190896
0.22854135026728878
0.2640296966142742
0.23526621014561178
0.25050891673264314
0.19396215052419677
0.17844443107683983
0.19104005931882945
0.19023380497095718
0.19532675633944496
0.17007635774109614
0.19090439993392666
0.22422962192357515
0.23138802130368102
0.2784209573793957
0.3347529578726647
0.3324996918407519
0.40757823453978
0.3920715789322982
0.2842706610795841
0.25272623537588823
0.16963343434377962
0.14841914594722
0.21223395318329882
0.21739874517625377
0.20663731658218837
0.22174385440210584
0.24215422138284431
0.24887634236779527
0.20748097505202107
0.17007635774109614
0.19090439993392666
0.2107341213848402
0.2956871240245025
0.42888832968698226
0.6701075292888112
0.5827853983787028
0.4160232936947898
0.2939257889989058
0.15538634980737487
0.16381024346981396
0.09586946836698151
0.09449153017160483
0.09895742714895707
0.09453798514900139
0.09451054704946339
0.0910479105490338
0.11283114064848597
0.13099845383536657
0.16160668013270532
0.19638195574477743
0.23819595281457615
0.2871316865466992
0.33318844658455227
0.34934419229623703
0.3449503996068908
0.3255729637250215
0.28256871516844445
0.2153024816721029
0.31324328588753425
0.3201180203000117
0.1711003240562256
0.11937676804670257
0.3112108174923877
0.35036496307183757
0.5607631484968578
0.6966237255577622
0.7668804014591745
0.7455938587445702
0.7924058875154101
0.896243709684654
0.8112187031796517
0.7386681901423898
0.8195318164553611
0.7405898618869229
0.8820194372263059
1.0926268182318857
1.1714257646056359
1.0851988683425717
1.1294695022526657
0.9169052971191164
0.7745249915271835
0.8622556915393423
0.8860686850078004
0.793264679383809
0.9278132146550617
0.7436820047616172
0.5796636111665396
0.664686916586648
0.848268704674251
0.3680251580901681
0.6725170119689653
0.667637356856541
0.5256288799029495
0.4925135122511389
0.5806549774292425
0.5438427195490542
0.5409666442244759
0.5502947844657788
0.6226093222642558
0.5395067515803571
0.4161565793141598
0.7447093463899743
0.6354985120489731
0.5096447687860289
0.5300977491235718
0.5687595388530884
0.6487226019985974
0.6725170119689653
0.8545013207592524
0.650528384336301
0.6122089479775791
0.7835557316349758
0.8633084913814386
1.0512524785785196
1.037403543267505
1.0253056273172827
1.065126492978512
1.3190679299153376
1.4450168901570593
1.2150003005047982
0.9882801635494228
1.0326496438921522
1.147718584944699
0.96902691960331
0.8522256372760947
0.7652890029180281
0.8671786194777856
0.9008927090685241
0.9312668624279526
0.7615119723781245
0.7196930235466988
0.5265653457266701
0.6413817752447702
0.6677894506576169
0.6566720314045558
0.6922435338606542
0.49069387308848067
0.4658325514666692
0.4798973688055829
0.4885872584119103
0.5895067024240328
0.4781535960937679
0.4249135410426086
0.6053926911139315
0.5642822681884481
0.5053669308279787
0.37876622325701964
0.45363733675563306
0.4141775352585875
0.33397936550374974
0.5044216210692193
0.46875641070263885
0.45271566487404125
0.4856429311786327
0.4709834903069976
0.5651271748804452
0.6197322710507239
0.7395369451228702
0.702476515307219
0.6942611475729691
0.6422207985742017
0.6663387565005537
0.6671829760843127
0.8171362352667765
0.6825686051612461
0.6046304949933134
0.5757139935984177
0.5873143022986693
0.659075877027529
0.6690255675416493
0.9331011791529803
0.8069037373035904
0.6710964057118852
0.9729917067894359
1.3762294145795833
1.369561711265408
1.2075379806016322
1.3025984368302221
0.9738650377164155
0.8107659608814525
1.1103720403611994
1.174632788645105
1.0958321704195868
1.095832170419587
0.9687295355859367
0.9899755313787238
1.4272480642961256
1.1554072140435905
1.429181956442279
1.4496728201536453
1.0210809261184333
0.7963708311289044
1.1060386533728614
1.1173786218494912
1.2858565688908836
1.2858565688908836
1.252448582170299
1.2080620410533331
1.2386188719064668
1.2386188719064666
1.3001428273821773
1.5319537439688926
1.0693631909116834
0.9441766701930407
0.9633349551575412
1.1154135896630282
1.1246979399807189
0.9445134797864917
0.8678029123171629
0.8071063316027834
0.8671786194777856
0.9008927090685241
0.9112586859184632
0.9453358703644239
0.990052096305994
0.9636435492358577
1.0704280750236308
1.219983234337053
1.0417409366636998
1.0417409366636998
1.0132903776863158
0.6740744125690901
0.8335687134389359
1.0965719085678938
1.0816440605328472
1.0295107300397732
0.8266739198009736
1.0304573397867196
1.1737827963526049
0.9584876565391199
0.9684563421404185
1.185401156301445
1.1211141634705795
1.090763481851096
1.2460281885629878
1.1554072140435905
1.3010291639006815
1.4214806935921027
1.295746116521053
1.0668210377976342
1.2282948957123467
1.2491080041066402
1.1529633613210426
1.0579899647790747
1.0579899647790747
1.2588782880127067
1.02364952050313
0.8847883226264229
1.3050653285285039
1.018266266034841
0.8266739198009736
0.6740744125690901
0.8335687134389359
1.0965719085678938
1.4815319297855718
1.0982972693964295
2.156655464068769
1.9555930968243496
1.7593066087778304
1.1172679846009492
1.0974911338288451
1.5864010629764387
1.7352020786721516
1.7245878109526669
0.9761142965931486
0.3791042140708303
0.21237989991322384
0.2334453204908298
0.2052034066822865
0.1949419245878012
0.3500852364789246
0.3947407899771906
0.45930649352985287
0.49714980611552123
0.5132157076567425
0.43708337309349343
0.2265953157320916
0.21365292362728472
0.3968222571767856
0.42496329873875865
0.39910152207939725
0.43551836462923804
0.38189212258971206
0.3588107487793615
0.2974033226028486
0.2449360103872276
0.21073787261802698
0.21335750358905253
0.3065771898505396
0.39837775927632973
0.24080793502382827
0.22233065875556451
0.2804737300420732
0.24013269710937513
0.20599610889166378
0.2114505901302948
0.19594582975343564
0.30047572710331694
0.2930635355978481
0.29836135282610265
0.29544308005154946
0.25183986913451234
0.26310011620797075
0.3171760290562437
0.31667054463139843
0.2543222089536699
0.22873247921744
0.21870099168055404
0.19594582975343564
0.20563246005212804
0.20609978679298413
0.2126462773206652
0.21935374259109874
0.18429849298862425
0.14447918104076488
0.15495430525262222
0.16005650261486784
0.23993767497428053
0.5444118989289345
0.5140123888537517
0.3140853274634745
0.24099198621099138
0.17931329136783952
0.15678799428088236
0.14414592908375454
0.1284154802615813
0.14702793243196954
0.1339049142001028
0.12062791950561962
0.181089664737631
0.1524913116858653
0.11937676804670257
0.20526226043954093
0.18407719505755568
0.20843658486244065
0.24697906305678347
0.38862904939004383
0.37094691241213595
0.3225475425655907
0.28256871516844445
0.2153024816721029
0.31324328588753425
0.3152563780183152
0.3073491337836238
0.3055398763408681
0.24631559354347385
0.31481148129648945
0.4137435609203802
0.4938178379398566
0.6291659046200171
0.6148757596513402
0.7424151683558746
1.1597508660153952
1.0135395094500874
1.3410996551377088
1.148484835641408
1.0788752254738343
1.2393537875798548
1.179864456816814
1.1932330525204244
1.0816088343104813
0.809777244692196
0.8903087634849399
0.9180509947595646
1.0327145944629408
1.0327145944629408
1.1897328430937182
1.017428808128873
0.8790771239747841
0.9157552831957241
1.0182085235150042
0.8931653872684864
0.9038767040676166
0.5796636111665396
0.664686916586648
0.6602444092455854
0.5955137251192948
0.7310239839208716
0.6920345478456688
0.5761934177168608
0.4370575761315704
0.5069230531726724
0.5175713374171443
0.43492906582276863
0.3515489988220252
0.2908252723176263
0.4671017733045793
0.5238837574836162
0.5175713374171443
0.43492906582276863
0.3515489988220252
0.2908252723176263
0.5206329058583559
0.7609728530911967
0.7386681901423898
0.8195318164553611
0.7405898618869229
0.8820194372263059
1.0926268182318857
1.1714257646056359
1.0851988683425717
0.9912333084475606
0.5645755050977111
1.1279461012533585
1.4523605573558755
1.634892298346633
1.2826565505951755
1.02364952050313
0.9424878477382258
1.2164425047436709
1.4560076717147514
1.2620777581682951
1.2360142575934334
1.6081969744427436
1.7210298697173865
1.7066496012975214
1.2712115845675298
0.811474253695903
0.5921945745659074
0.5898280086107786
0.5837313734446956
0.37876622325701964
0.45363733675563306
0.4023414144060036
0.4220967233937067
0.33852817560487064
0.39962105992017233
0.4864647840675049
0.4567606093731025
0.3364460589529535
0.37150071193916206
0.39659909909277563
0.4621556848913629
0.5569934337089684
0.4051188531008136
0.6351887514802866
0.5694681584214958
0.5576477334756972
0.603018607353903
0.7127077137695064
0.648612373423538
0.7022109802480718
0.7409787161404879
0.7742336902231635
0.9009479611703147
0.9648132739377855
0.811421780872508
0.8466636215100046
0.8461622769160786
0.8877123869983131
0.9323697850216065
0.8504750204718196
0.6046304949933134
0.5757139935984177
0.5873143022986693
0.747079480808383
0.6690255675416493
1.0834231831388828
1.1351565142061697
0.7696408631980818
0.9943768108763913
1.1235332891591137
1.1400208284329518
1.3040181917168923
1.4760086296977297
1.326938231124261
1.48663552605293
1.651254320113481
1.4467671826844064
1.0417409366636998
1.0417409366636998
1.0132903776863158
0.587220219514704
1.3139522132332722
1.1496504523240498
1.2503474995818857
1.2229121880627345
0.6841687805371558
0.8533001066179675
1.0501278620664503
0.9112586859184632
0.9453358703644239
1.0674969242248384
0.9957747018566013
1.2360142575934334
1.4678727880289193
1.4656570770488118
1.3602557629135048
1.6200279452685642
1.2678503484029142
1.3921587327073488
1.5338612210109612
1.2529819151520123
1.1558953507924503
1.1713413062184734
0.9625661569829798
0.6841687805371558
1.057227956658771
1.2400271319053597
1.5221072852568238
1.4403386819503086
1.056792308521165
1.2473728650251457
1.476197065343034
1.5208827183587907
1.379002415270671
0.9847084372867162
0.9547733280581726
1.0151446532471802
1.0006781502960624
1.181030812324885
1.094378522485552
1.1983528840540274
0.5433487534750939
0.9134301615967189
1.3706478148200683
1.4569234877737773
1.4279500174873854
1.0387465571141428
1.093219373713483
1.090763481851096
1.0527661938956956
0.8847883226264229
1.3050653285285039
1.2534538264257944
1.0858499075410286
1.0284387719256276
1.3234088472472079
1.0878565864408427
1.2856031927591411
1.2492880356453806
0.6990748682950232
1.031870760683703
1.1098477947106982
1.6798958213484407
1.7161654914325246
1.5908731998126646
1.5162293484726608
1.3246677355330743
1.5497662420439855
1.511601883131251
1.3905024335191374
1.5692971495113877
1.74356930458707
1.8128891279215473
1.8215909660454943
1.6201113563613112
1.5798033924044017
1.5314434313324632
1.179864456816814
1.4805413007270216
0.7342011348433776
0.4471790231719622
0.21237989991322384
0.24949050315325086
0.44658284664255504
0.5580376911990031
0.5801946844551579
0.6136914589814721
0.6710449169852966
0.7238178290144434
0.7503664398922395
0.7373718454591975
0.3027904084959444
0.24584168386529506
0.5574584884512631
0.44929046431769193
0.23222485127320544
0.28680861578852995
0.22493118695701422
0.22013172989585789
0.2449360103872276
0.247175352310863
0.21563547126042498
0.25337771924326796
0.26176247457966767
0.25378700777020763
0.29175497312455695
0.25733138318760884
0.26745011277605824
0.27760829383459623
0.3070019407127378
0.3178958721506695
0.34259506926052397
0.33620496098427494
0.4191959276633734
0.3435794351502819
0.24579864629654316
0.24365013933923418
0.18362660508025822
0.24093675258661917
0.14447918104076488
0.21309917621255509
0.19692299691504447
0.21502616614877398
0.22422962192357515
0.16970389013054765
0.24921330018507296
0.15495430525262222
0.16005650261486784
0.23993767497428053
0.42888832968698226
0.8899543940017602
0.8285129823523653
0.4160232936947898
0.2939257889989058
0.15538634980737487
0.16405394296727746
0.09757798697127663
0.092536925693488
0.09449153017160483
0.09895742714895707
0.09453798514900139
0.0910479105490338
0.10563579650659666
0.11283114064848597
0.13099845383536657
0.1524913116858653
0.16946722882424733
0.23573070871539012
0.30323216001950765
0.267600048732775
0.2784511829869334
0.34335535996911865
0.30140119570063273
0.2665419057520901
0.21370279337841672
0.19548410116219814
0.2375375153502295
0.2112706059984377
0.23547474589927075
0.16454958919161072
0.2126842707148777
0.3525733370749182
0.8673274270216051
0.8965481021821585
1.132770084481793
1.2020180665899118
1.3480104645237225
1.1756333702044237
1.2075325482193389
1.1210759395867589
1.3975518108814722
0.989503014528125
0.7661899088087517
0.5931935024112
0.5438427195490542
0.730820492235331
0.6850498963731477
0.6771244327767812
0.9177366089292079
1.0183829976558314
1.083667844608621
0.8515899858811525
0.7832518843776789
0.7701668548572354
0.6602444092455854
0.5533852386993
0.8281746269551238
0.7220343668751371
0.6555831896250681
0.6159024582135371
0.6307492768643346
0.5338813306860388
0.5955137251192948
0.6971518372446264
0.7316185408983468
0.7090950517002709
0.6689282104426212
0.7370435441113323
0.782248188829616
0.6460220150482633
0.6020383220352636
0.6572033600308739
0.5206329058583559
0.6824326204359461
0.6971518372446264
0.6125241904801265
0.5724000817244654
0.633914875490902
0.5505495143560147
0.6189389141504681
0.7721093151413787
0.7383901207372726
0.5096447687860289
0.6820871537137226
0.7539840218658572
0.8456690406798025
1.0092496920324456
1.0132904539861232
0.8695252113936079
1.4704292441876181
1.625197678886436
1.1595420713048974
1.3842118323130854
1.3204440070968606
1.1849540932635334
1.0640820074197122
0.7475804784421987
0.6413560589699028
0.5265653457266701
0.5188182084183396
0.5510978089197432
0.8357595187247352
0.9107647130386242
0.6721047347002985
0.7039938004566894
0.6924960373134998
0.5818025764391636
0.4466080971198887
0.44751520463231786
0.41714348188480604
0.5284713615435795
0.5855641436391015
0.5837313734446956
0.3700964263114753
0.4349365106781398
0.4343090082825597
0.48502760980233883
0.483778067132761
0.46793658088325246
0.4466080971198887
0.44751520463231786
0.41714348188480604
0.48502760980233883
0.5188182084183396
0.751378068033197
0.9118559777852326
0.9362544845855164
0.8497816431511146
0.9410049779250157
0.9994798934437548
1.0599978800063592
0.9331011791529803
0.8069037373035904
0.6710964057118852
0.9729917067894359
1.469058153745179
1.6174416453162896
1.6648661009638874
1.5578612580658795
0.9933168991963965
1.0952048368846161
1.1968981249505266
1.139037309159224
0.934786924390907
0.27420691670086733
0.5378414409269183
0.5422877244969917
0.5995501729828981
0.7513723168344354
1.2244969245195114
1.280046284671371
1.1612484344652878
1.4329723572021247
2.0033400331548394
2.058895481866159
1.199173380762602
1.3154650309707265
1.5471163454007768
1.50230492648358
1.4441223906419907
1.4569234877737773
1.217635429255072
1.3877141027259334
0.5433487534750939
0.9134301615967189
1.1544978809759527
1.0822922038571092
0.8594005859155089
0.8898969902102588
0.705951472801359
0.6629315693498415
0.6948094591029204
0.9893227406481714
0.9578457061251165
0.5910929969097983
0.5806332378700376
0.6015867379116134
0.7484168554031353
0.894694540737474
0.8543923663697123
0.6727192750542692
0.8446036432475246
0.8070211977863906
0.9865141608723988
1.1960262733364067
1.1970324187902452
0.990052096305994
1.0038109562247506
1.3010633038690447
1.2696490530839328
1.0296644802681587
1.0927375084926076
1.6105492892664968
1.4256625592789243
1.4509525002200219
1.3327690247153618
1.0878565864408427
1.0816440605328472
0.9587390550590845
0.744890620737781
0.587220219514704
1.3139522132332722
1.815108428802219
1.0429682862934966
0.9279142962721207
1.5242377817741772
1.4619476480673523
0.9882801635494228
1.4656570770488118
1.5478183714131275
1.8234386633192634
1.2959860355095663
1.3431361072518953
1.205566357458325
1.3829730623340055
1.1975937899395503
1.4137162321992411
1.1275538165078585
1.7741090405662796
1.909120121610089
1.66020802179863
1.1381161703186329
1.294056933273886
1.2678503484029142
1.3431361072518953
1.5223091767628911
1.0338967094344038
0.7635587932120345
0.7933458001039182
0.5963659648720452
0.3891106038583645
0.2334453204908298
0.2052034066822865
0.1949419245878012
0.3503578126838247
0.4878761861784703
0.6167833167863493
0.7214726257982464
0.7779998881698391
0.4665959080276805
0.34883732029681813
0.40742713894854804
0.5508827739957306
0.5675215694118395
0.7506335776469446
0.517307948022617
0.24579864629654316
0.20366848777184346
0.16963343434377962
0.14841914594722
0.3030297085512962
0.4047076730229021
0.6731050140207909
1.0012980859753973
1.1409606243203527
0.9298507317429016
0.360419935561832
0.17418666651671294
0.18302631848767
0.2745775869993835
0.2090208116564869
0.18201467821619027
0.4394351442618836
0.6843281169321206
0.9004071467235294
1.0216606409775595
1.1604693232511127
1.1873651057013328
1.1804527474725988
1.2564042528239132
0.9241712648045233
0.7964000884223393
1.2396347957942555
1.4316932914562588
1.0910894511799623
1.7663674529081057
1.2620777581682951
1.087823828475961
1.1544978809759527
0.8935518260472464
0.8935518260472464
0.8348297146261117
0.6990748682950232
0.6371064899268054
0.9161386776746638
1.0501278620664503
1.0530820790982756
1.2390433119584625
1.262570853465846
1.0376468533671472
1.1545561996397984
1.1060386533728614
1.1173786218494912
1.284906895347802
1.0882786960605102
0.9391100936095151
0.8612335226720025
0.9738650377164161
1.2202046778237987
0.7189856000279917
0.6789845812362514
0.5856068532862866
0.5998382688247685
0.6948094591029204
1.1517584002559975
1.185607529032418
1.061391490040677
1.089061398492843
0.8281892768959759
1.148479223879486
1.1761466680283712
1.187742542368451
1.2903585438973402
0.9796035223536985
1.1545561996397984
0.8935518260472464
0.8935518260472464
0.8348297146261117
1.0699792743482583
1.0258961486527254
1.0845360938567647
1.3574479749720703
1.5484957794085055
1.2957065653249658
1.403540092429569
1.3365116276319784
1.3246677355330743
1.5428737025459123
1.106892213698401
0.9692475643215086
1.1517597998576923
1.1357283259805317
0.9349217582577494
0.6480492536863491
0.5593802335637811
0.5208134293543779
0.5905165771368731
0.5867399673575279
0.9311015908754962
0.8478301813547764
0.7608053840981034
0.7516324559851568
0.7282209487419915
0.8209557525006368
0.7072147583546389
0.7998957918222123
0.8185881217813462
0.4060407520467487
0.5034943123030018
0.5231878537460039
0.62540027887468
0.5038347605140918
0.46843116140086555
0.44630483493201895
0.6108065712228571
0.6833490082736364
0.5409666442244759
0.827829829118267
0.6563933296374967
0.7673402117238755
0.8481936811001964
0.9509371746203693
0.7730897732434288
0.8470654456971927
0.6455299148574288
