2.1740807749979822
2.1740807749979822
2.1740807749979822
2.1740807749979822
2.1740807749979822
2.0628584836698822
1.7527474119881405
1.0132840968901846
0.9584083511199012
0.9584083511199012
0.9584083511199012
0.9584083511199012
0.9584083511199012
0.9584083511199012
0.9584083511199012
0.9584083511199012
0.9584083511199012
1.1805404514288718
1.3527732284157374
1.3527732284157374
1.3261537783282744
1.3261537783282744
1.3261537783282744
1.4831969628546047
1.443100664588799
1.4106982879572196
1.3916528721717434
1.362814335076364
1.2947545435084507
1.2845507868205115
1.2845507868205115
1.2427975862795273
1.2216069559766203
1.1829300073769402
1.0980706801684708
0.9718215709969814
0.812624498181354
0.7140073190181058
0.6608222699161826
0.5420184909214343
0.5153791826316152
0.47381424727033244
0.2787505892082084
0.2697059679807483
0.2697059679807483
0.2697059679807483
0.2697059679807483
0.2697059679807483
0.2697059679807483
0.2697059679807483
0.2697059679807483
0.2697059679807483
0.6212367812095785
0.8608722069624025
1.4651047951563876
1.7560658547471208
1.7157026663190065
1.671807659385654
1.5882591898121536
1.5112362733846891
1.5112362733846891
1.559941754987603
1.593086839613267
1.559941754987603
1.4306488025689572
1.4222243453100143
1.4098723974606386
1.4098723974606386
1.4098723974606386
1.4222243453100143
1.559941754987603
1.4222243453100143
1.4222243453100143
1.4222243453100143
1.5633769230563357
1.5825441573933823
1.6468022831946056
1.8323074128906356
1.8323074128906356
2.449318379578117
2.449318379578117
2.5086075147692264
2.5086075147692264
2.5086075147692264
2.449318379578117
2.106004897417083
1.9547424020149748
1.931419106170481
1.888239664300113
1.8741480201610343
1.5582525056132672
1.5582525056132672
1.5582525056132672
1.520171690563082
1.5159319427656568
1.316419455641731
1.316419455641731
1.316419455641731
1.520171690563082
1.520171690563082
1.2538636663838036
1.1048770718685963
1.1048770718685963
1.1048770718685963
1.1048770718685963
1.1048770718685963
1.1120881347982599
1.1120881347982599
1.1120881347982599
1.1120881347982599
1.4692786320939462
1.4692786320939462
1.4692786320939462
1.4692786320939462
1.4692786320939462
1.7457093034022995
1.7340024448914075
1.7340024448914075
1.7340024448914075
1.4123575857548236
1.4123575857548236
1.4123575857548236
1.4123575857548236
1.5683717405992539
1.6509164829109724
1.6509164829109724
1.6509164829109724
1.6509164829109724
1.8546683136496231
1.8546683136496231
1.8546683136496231
1.8546683136496231
1.8546683136496231
1.8546683136496231
1.8982782597636279
1.949731854244324
1.949731854244324
1.8982782597636279
1.8982782597636279
1.8982782597636279
2.407673396460475
2.4308946697491645
2.4308946697491645
2.4308946697491645
2.4308946697491645
2.407673396460475
2.429791727971404
2.5543921184444986
2.5688399581170263
2.5688399581170263
2.5688399581170263
2.5688399581170263
2.673737282413995
2.9999824602010823
2.888131293565369
2.8279206919462894
2.888131293565369
2.7770397505132145
2.272423743163381
2.171803535628157
2.170928289889263
2.0176228036166117
1.8565437633424076
1.6270767025626265
1.5644099578897948
1.5053114344466467
1.4376333141325286
1.4301575394715367
1.4202523227781718
1.3126658797825759
1.3126658797825759
1.2906125249411617
1.2070711150580091
1.2418646135269569
1.222319129892858
1.2070711150580091
1.1925521275069666
1.0704100185217527
1.1543972845391999
1.0680387712804298
1.0680387712804298
1.0680387712804298
1.0680387712804298
1.0680387712804298
1.0680387712804298
1.0704100185217527
1.1543972845391999
1.258854351782191
1.3027701667147498
1.514258410761955
1.9077199521863009
2.010240422454741
2.010240422454741
2.010240422454741
2.010240422454741
2.010240422454741
2.0649244576981802
2.082479740832975
2.1991869313216417
2.1991869313216417
2.1991869313216417
2.1991869313216417
2.1991869313216417
2.1991869313216417
2.571852771169609
2.9698403853253867
2.9200349140263677
2.9200349140263677
2.7873208149023796
2.7708333790914574
3.0050294100052133
3.0050294100052133
2.9200349140263677
2.9200349140263677
2.840041755186895
2.840041755186895
2.840041755186895
2.840041755186895
2.840041755186895
3.0399303455960514
3.0624303864971427
3.0624303864971427
2.816272933339611
2.4356651341417184
2.4356651341417184
2.4356651341417184
2.4356651341417184
2.4356651341417184
2.4356651341417184
2.4356651341417184
2.3958051708045915
2.3958051708045915
2.3958051708045915
2.464589869241349
2.8388686304494803
2.8388686304494803
2.8388686304494803
2.8388686304494803
2.8388686304494803
2.8388686304494803
2.1874382225235434
2.095844835155049
2.095844835155049
2.095844835155049
2.095844835155049
2.095844835155049
1.8844434922721665
1.8844434922721665
1.8844434922721665
1.8844434922721665
1.8844434922721665
2.095844835155049
2.0658492296292112
2.0658492296292112
2.0658492296292112
2.0658492296292112
2.0658492296292112
2.141349732610932
2.2082129360435383
2.2705482953415728
2.2705482953415728
2.2705482953415728
2.3564206090392665
2.705888896671794
3.080222768144213
2.817742560544052
2.6940490881295336
2.6940490881295336
2.6940490881295336
2.6940490881295336
2.627620497562449
2.6055113175838485
2.6055113175838485
2.6055113175838485
2.6055113175838485
2.6055113175838485
2.6055113175838485
2.5904603307734764
2.5904603307734764
2.5904603307734764
2.5904603307734764
2.5904603307734764
2.7340885507603097
2.7340885507603097
2.7340885507603097
2.7340885507603097
2.603059604878912
2.5904603307734764
2.9698070227462354
3.0642260384681834
2.7192062677103235
2.578322323280584
2.4898875430422858
2.202523804291701
2.202523804291701
2.202523804291701
2.0855680502989205
2.0855680502989205
2.0855680502989205
2.0855680502989205
2.0855680502989205
2.2231823191252973
2.260813039850003
2.0855680502989205
1.156965894123229
1.156965894123229
1.156965894123229
0.7884823851431273
0.7768920641764738
0.6838152200321512
0.6838152200321512
0.6838152200321512
0.6838152200321512
0.6838152200321512
0.6838152200321512
0.7481231459034655
0.7481231459034655
0.7481231459034655
0.7481231459034655
1.0100608421652664
1.1199025083802512
1.2486185404447987
1.5331288297061851
1.5318479341151667
1.2858450503482033
1.2293379740142985
1.2293379740142985
1.2858450503482033
1.2858450503482033
1.2293379740142985
1.1260359623298428
1.0222334094000793
0.9925491572664844
0.8722238957301943
0.7267372855401303
0.6186576960025387
0.5639470463788379
0.4398873123896038
0.33259656264262666
0.33259656264262666
0.33259656264262666
0.33259656264262666
0.33259656264262666
0.33259656264262666
0.33259656264262666
0.33259656264262666
0.4101449139303095
0.5910084892680781
0.9221329159348058
1.1975368140375275
1.6526304971116115
1.7261978225812111
1.6924352346269556
1.6734169543207604
1.661514342674008
1.570413923784358
1.570413923784358
1.570413923784358
1.527639188535004
1.5175209128169411
1.5175209128169411
1.5175209128169411
1.5175209128169411
1.5091721739691653
1.474335132303751
1.4174291200100544
1.3948349245378444
1.3948349245378444
1.3948349245378444
1.4174291200100544
1.5492333794809467
1.6185252530455512
1.6890816701199987
1.7144793259693927
1.7236702843231861
1.8129064685427434
1.9604739933418744
1.9782356799143386
2.135859536725906
2.2311521562060466
2.2311521562060466
2.2311521562060466
2.2311521562060466
2.097628347991403
1.6076412360849792
1.6076412360849792
1.6076412360849792
1.6076412360849792
1.5783523964853574
1.4134773283221083
1.3743978975014481
1.3743978975014481
1.3743978975014481
1.4134773283221083
1.4134773283221083
1.3743978975014481
1.3743978975014481
1.3743978975014481
1.4134773283221083
1.3096320591209143
1.3096320591209143
1.4186231556436955
1.4186231556436955
1.4186231556436955
1.4186231556436955
1.7273647540796582
1.7273647540796582
1.7273647540796582
1.7273647540796582
1.7375883885845052
1.8430712431934853
2.1030614444139566
2.1030614444139566
2.1030614444139566
2.1030614444139566
2.3952395956812844
2.3952395956812844
2.3952395956812844
2.3952395956812844
2.3225918570284985
2.3225918570284985
2.3225918570284985
2.2274153651506206
1.7738276737067373
1.7738276737067373
1.739085704297906
1.739085704297906
1.739085704297906
1.739085704297906
1.7738276737067373
1.7738276737067373
1.7738276737067373
1.7738276737067373
1.9633449792555067
2.2167247038647533
1.9633449792555067
1.9633449792555067
1.862316864275353
1.862316864275353
1.862316864275353
1.862316864275353
1.9633449792555067
1.9829232972270818
1.9829232972270818
1.9829232972270818
1.9829232972270818
2.2267486276116095
2.2652927110110213
2.2662855782266784
2.6760748917720054
2.0645351020978886
2.0645351020978886
2.0645351020978886
2.170384379069499
2.1441256439685907
2.0645351020978886
1.8666520611111497
1.8010879740888166
1.6657138203131545
1.550208798680683
1.4514022589593927
1.425467238921149
1.3660847083139396
1.3586851595557405
1.3586851595557405
1.3586851595557405
1.3586851595557405
1.3374994073601194
1.327791550196414
1.327791550196414
1.327791550196414
1.327791550196414
1.3586851595557405
1.4469913876412919
1.324507698815315
1.3021850582772134
1.3021850582772134
1.3021850582772134
1.324507698815315
1.324507698815315
1.3021850582772134
1.3021850582772134
1.3021850582772134
1.3021850582772134
1.3021850582772134
1.4059431319505815
1.69931854852008
1.69931854852008
1.69931854852008
1.69931854852008
1.8620268484171936
2.226121073153433
2.321641330591723
2.410472161595767
2.4142180363498627
2.4142180363498627
2.544842875432076
2.5862896976575884
2.6395232558769774
2.6196643453919255
2.6196643453919255
2.6196643453919255
2.6196643453919255
2.6196643453919255
2.446565331558015
2.0079163298352305
2.0079163298352305
2.0079163298352305
2.0079163298352305
2.0079163298352305
2.0079163298352305
2.0079163298352305
2.0079163298352305
2.0079163298352305
2.0079163298352305
2.0603136359687904
2.276439334256524
2.1949543914554575
1.7671181876939968
1.7671181876939968
1.7671181876939968
1.7671181876939968
1.7671181876939968
1.7671181876939968
1.7671181876939968
1.7671181876939968
1.7671181876939968
1.8062635417292856
2.0906243253421746
2.4580635966854762
2.5363383893374887
2.5363383893374887
2.5363383893374887
2.5363383893374887
2.5363383893374887
2.5363383893374887
2.5363383893374887
2.5363383893374887
2.5363383893374887
2.784612200543926
2.9079789577969573
2.366950243441215
2.1021039465284015
2.1021039465284015
2.1021039465284015
2.1021039465284015
2.1021039465284015
2.1021039465284015
2.1021039465284015
2.1021039465284015
2.1021039465284015
2.1021039465284015
2.539698502240486
2.665120948549414
2.7112188527521877
2.733328350641091
2.733328350641091
2.733328350641091
2.6790626855098925
2.656676844919556
2.656676844919556
2.566634981726231
2.3020909925615953
2.3020909925615953
2.3020909925615953
2.3020909925615953
2.3020909925615953
2.3020909925615953
2.3020909925615953
2.3020909925615953
2.8564939185903047
2.9583518274388116
3.0504179215591196
3.254960002663626
3.075435426605767
3.0250675242080964
3.0250675242080964
3.3161937976511604
3.3161937976511604
3.3161937976511604
3.2952689477539763
3.2952689477539763
3.2952689477539763
2.88790985315263
2.88790985315263
2.638241222668105
2.638241222668105
1.910039658177134
1.910039658177134
1.910039658177134
1.910039658177134
1.910039658177134
1.910039658177134
1.910039658177134
1.910039658177134
1.9295901124065558
2.1221856188934
2.1717489303242394
2.178888625960279
2.2377089938741532
2.2377089938741532
2.1717489303242394
1.9803875457294144
1.021778072486692
0.9129219861415594
0.9129219861415594
0.9129219861415594
0.9129219861415594
0.9129219861415594
0.9129219861415594
0.9129219861415594
0.9129219861415594
0.9129219861415594
1.062743139469475
1.1520771307517028
1.1520771307517028
1.1447053878036555
1.1447053878036555
1.1447053878036555
1.4199465752151061
1.4112903011962457
1.3685665901974855
1.3677279100878073
1.3097070037196286
1.3060412251053761
1.2850576820433532
1.2439281720086093
1.2439281720086093
1.1434317542170749
0.9155748568289354
0.7466072262463658
0.7385175068296237
0.5576444505596951
0.3975584512433415
0.3489314184010312
0.3489314184010312
0.3489314184010312
0.3489314184010312
0.3489314184010312
0.3489314184010312
0.3489314184010312
0.3489314184010312
0.44050352399852366
0.44050352399852366
0.6729428647828695
1.0159880833253667
1.1786517484846035
1.6101354214128576
1.83761946797687
1.7309568068721857
1.6895768443865498
1.6532003319200577
1.6235411846385872
1.6101354214128576
1.5387941573576633
1.5387941573576633
1.5387941573576633
1.4850042618213632
1.4422252000036955
1.4408406544474313
1.4394637503529415
1.4394637503529415
1.4394637503529415
1.4422252000036955
1.4394637503529415
1.3662306488184368
1.3662306488184368
1.3662306488184368
1.3662306488184368
1.3120316038432385
1.5990663842974502
1.6042740298207319
1.6042740298207319
1.6042740298207319
1.619689146858296
1.619689146858296
1.619689146858296
1.619689146858296
1.4253200995097355
1.4253200995097355
1.7982873227886496
1.6711393164990427
1.4294321431758625
1.4294321431758625
1.4294321431758625
1.4294321431758625
1.6711393164990427
1.6884616144438975
1.7166796243608253
1.5214131115766492
1.4294321431758625
1.4189048077701552
1.4189048077701552
1.4189048077701552
1.4189048077701552
1.4189048077701552
1.4189048077701552
1.4189048077701552
1.4189048077701552
1.4189048077701552
1.607582719053532
2.0626215263447953
2.194783285301574
2.6729609626568758
2.658691692142723
2.658691692142723
2.658691692142723
1.5225991635845415
1.5225991635845415
1.5225991635845415
1.5225991635845415
1.5225991635845415
1.5225991635845415
1.5225991635845415
1.5225991635845415
2.0677407945025035
2.0677407945025035
2.0677407945025035
2.0677407945025035
1.940637303397591
1.940637303397591
1.940637303397591
1.940637303397591
1.7880820363658039
1.6910968576263374
1.6910968576263374
1.6910968576263374
1.6910968576263374
1.8902519783819822
1.9060271262050101
1.9060271262050101
1.9060271262050101
1.9060271262050101
1.9060271262050101
1.9715676814974887
2.143275460231099
2.16434956270375
2.0996738064739744
1.9715676814974887
1.9715676814974887
2.083424776485136
2.0879033230420285
2.083424776485136
2.0666804247457033
1.8544816138063565
1.756248858551144
1.5925316236620828
1.5925316236620828
1.5870988695134995
1.5293677567905593
1.5138709217926198
1.4725769685155008
1.4682509888389788
1.3188079523575713
1.104924754775815
0.9625615307489537
0.9625615307489537
0.9625615307489537
0.9625615307489537
0.9625615307489537
0.9625615307489537
0.9625615307489537
0.9625615307489537
0.9581427379100054
0.9581427379100054
0.8010484085695851
0.9415449906012525
0.9415449906012525
0.9415449906012525
0.9415449906012525
0.9415449906012525
0.9415449906012525
0.9415449906012525
0.9415449906012525
1.1408731471075517
1.165644448540989
1.4352819634959384
1.4775915623356846
1.8127464116975682
2.389622998693906
2.5222209010622283
2.4130482933700037
2.2778482733845298
2.078145478161765
2.078145478161765
2.078145478161765
2.078145478161765
2.078145478161765
2.078145478161765
2.078145478161765
2.078145478161765
2.078145478161765
1.8794904844865783
1.8805618844726573
1.948441726179014
1.948441726179014
1.948441726179014
1.948441726179014
1.948441726179014
1.948441726179014
1.948441726179014
1.948441726179014
1.948441726179014
2.1210998587360974
2.4204966322671764
2.4204966322671764
2.4204966322671764
2.4204966322671764
2.339295712327817
2.09356569461401
1.8216885336937219
1.8216885336937219
1.8216885336937219
1.8216885336937219
1.8216885336937219
1.8216885336937219
1.8216885336937219
1.8216885336937219
1.8216885336937219
1.8216885336937219
1.8805378275344389
2.434832162137276
2.1361486014457753
2.0788398709139315
2.0788398709139315
2.0788398709139315
2.0788398709139315
2.0788398709139315
2.0788398709139315
2.0788398709139315
2.0788398709139315
2.0788398709139315
2.0788398709139315
2.46005973852285
2.3889857713163734
1.4280903880235518
1.3804562817158992
1.3804562817158992
1.3804562817158992
1.3804562817158992
1.3804562817158992
1.3804562817158992
1.3804562817158992
1.3804562817158992
1.3804562817158992
1.4852891797828058
1.9233315475612347
2.8450281561480613
2.913325818329662
2.950262100744793
2.956426714465287
2.913325818329662
2.7407921346623536
2.4474536568051226
2.409672471425526
2.409672471425526
2.2406178145722744
2.2406178145722744
2.2406178145722744
2.2406178145722744
2.2406178145722744
2.2406178145722744
2.2406178145722744
2.2406178145722744
2.336154108548705
2.619292805017073
2.619292805017073
2.5432041159935053
2.5432041159935053
2.389558994877694
2.389558994877694
2.389558994877694
2.389558994877694
2.2468717370219022
2.227292636625941
2.0585574119452468
2.0585574119452468
2.0585574119452468
2.0585574119452468
2.1698657095475773
2.1698657095475773
2.0598866583624775
2.0598866583624775
2.0598866583624775
2.209076952495238
2.218869432122971
2.2440126257648307
2.2571010206800888
2.0598866583624775
1.5007629692358468
0.9947216320549878
0.9947216320549878
0.9947216320549878
0.9947216320549878
0.9947216320549878
0.9947216320549878
0.9947216320549878
0.9947216320549878
0.9947216320549878
0.9947216320549878
1.540024084716603
1.625316597146351
1.6406621217170094
1.6406621217170094
1.6406621217170094
1.6432573902736547
1.8644926059608384
1.7276519943278366
1.7126147220076318
1.6154404537662295
1.5453742549040344
1.4229843011000922
1.3944144444559872
1.273002022497816
1.1408130002565156
1.0386249269970937
0.8398016347369059
0.7045153270860218
0.6085849811506779
0.41086599466272766
0.41086599466272766
0.41086599466272766
0.41086599466272766
0.41086599466272766
0.41086599466272766
0.41086599466272766
0.41086599466272766
0.45016943918822266
0.5566103226127669
0.6374953550383474
0.840610043987428
0.9730377353398021
1.208643827197661
1.4751843528586732
1.8519110455417784
1.8355089651325238
1.8214518827722084
1.6889194251215849
1.5990778500139256
1.4751843528586732
1.4522028703481862
1.4438516650281368
1.4438516650281368
1.4438516650281368
1.402820907561373
1.402820907561373
1.3820079770420062
1.3442818679303332
1.3442818679303332
1.3442818679303332
1.3442818679303332
1.3820079770420062
1.4929923310357378
1.5241510387266277
1.9110293435603656
2.3744827360568634
2.3221874878856057
2.3221874878856057
2.3221874878856057
2.3221874878856057
1.8952087971575524
1.8952087971575524
1.6456673599138065
1.6456673599138065
1.6108878552021355
1.5200700140619494
1.5200700140619494
1.5200700140619494
1.5200700140619494
1.5200700140619494
1.5200700140619494
1.4918404219363568
1.4918404219363568
1.4918404219363568
1.4918404219363568
1.5764384913171354
1.61965509187861
1.6688433832182958
1.6688433832182958
1.6688433832182958
1.9417636738224675
1.9217310202388342
1.9217310202388342
1.9140756026571866
1.9140756026571866
1.9140756026571866
1.9217310202388342
1.9217310202388342
1.9140756026571866
1.9140756026571866
1.9140756026571866
1.9140756026571866
1.6126712384908928
1.5543011429986797
1.5543011429986797
1.5543011429986797
1.5543011429986797
1.5543011429986797
1.6881766694001634
1.8448035805011453
1.8448035805011453
1.8448035805011453
1.8448035805011453
1.9051210855748224
1.8696238827649851
1.8696238827649851
1.8448035805011453
1.8448035805011453
1.8448035805011453
1.5813713324045977
1.5739851732855399
1.5739851732855399
1.311822309954973
1.311822309954973
1.311822309954973
1.311822309954973
1.311822309954973
1.311822309954973
1.2641164883835794
1.2641164883835794
1.2641164883835794
1.311822309954973
1.311822309954973
1.2181399056601872
1.2181399056601872
1.2181399056601872
1.2181399056601872
1.251858266780505
1.4791677348078924
1.4791677348078924
1.4791677348078924
1.4791677348078924
1.666032236064126
1.5186070994198648
1.5056998279692488
1.5556498165349422
1.231142250712157
0.9757544017490963
0.9757544017490963
0.9757544017490963
0.9757544017490963
0.9757544017490963
0.9757544017490963
0.9569690158766709
0.9569690158766709
0.9569690158766709
1.0390862065348572
1.12265110985195
1.1228618479740011
1.1228618479740011
1.1228618479740011
1.1228618479740011
1.1971315855186477
1.213391634087059
1.3566112343151222
1.3803710692027993
1.3803710692027993
1.3803710692027993
1.3803710692027993
1.3803710692027993
1.4292129321357525
1.4836574089979393
1.534153951863511
1.636651032856752
1.8855030787649303
1.9470916459290297
2.091480003931278
1.9997853307012767
2.0255880172294094
2.0255880172294094
2.0255880172294094
2.0255880172294094
2.234841307129593
2.3147018498643144
2.3147018498643144
2.3147018498643144
2.3147018498643144
2.3147018498643144
2.5986436230798735
2.63722379049841
2.405823185636706
2.310128110361932
2.310128110361932
2.310128110361932
2.310128110361932
2.310128110361932
2.310128110361932
2.310128110361932
2.310128110361932
2.310128110361932
2.310128110361932
2.4899970470375004
2.7004265966028904
2.4954488883458605
2.4068725721108586
2.4068725721108586
2.4068725721108586
2.2774769466023406
2.2774769466023406
2.2774769466023406
2.2774769466023406
2.2774769466023406
2.2774769466023406
2.3631241803564422
2.427159118274125
2.4802973332944394
2.4802973332944394
2.543870776709123
2.6749863403689913
2.465036479486319
2.2770429676527275
2.2770429676527275
2.2770429676527275
2.2770429676527275
2.2770429676527275
2.2770429676527275
2.066927212023572
2.066927212023572
2.066927212023572
2.066927212023572
2.1091056521055487
2.1091056521055487
2.1091056521055487
2.1091056521055487
2.1091056521055487
2.1091056521055487
2.1091056521055487
2.334462925133036
2.717820652631645
2.717820652631645
2.717820652631645
2.717820652631645
2.717820652631645
2.5502715133081297
2.5502715133081297
2.5502715133081297
2.5502715133081297
2.5502715133081297
2.5502715133081297
2.596512405420274
2.6859786264251824
2.606351790166038
2.606351790166038
2.606351790166038
2.6821620799605697
2.6821620799605697
2.6821620799605697
2.6821620799605697
2.6821620799605697
2.6821620799605697
2.6821620799605697
2.801221973785653
2.999463772570577
2.999463772570577
3.054843822815525
3.054843822815525
3.054843822815525
3.054843822815525
3.0523009713833407
2.976207512334659
2.5533251887666992
2.5533251887666992
1.731641689280879
1.731641689280879
1.731641689280879
1.731641689280879
1.731641689280879
1.731641689280879
1.731641689280879
1.731641689280879
2.1367457385620763
2.264593985581756
2.2993117715271967
2.313733022476801
2.2287583391076384
1.7278448166005822
1.076325969734382
1.076325969734382
1.076325969734382
1.076325969734382
1.076325969734382
1.076325969734382
1.076325969734382
1.076325969734382
1.076325969734382
1.076325969734382
1.2615934268260198
1.3411257317638825
1.4776897619344587
1.4776897619344587
1.4776897619344587
1.3748056460356846
1.5815725345531684
1.5049677949622116
1.4871999352840923
1.3748056460356846
1.3411257317638825
1.2604838670984784
1.2601969609484784
1.1099987818212578
1.0082882535256446
0.885526405753993
0.7107845494941339
0.5783682487384001
0.37766068296064487
0.316158519770973
0.316158519770973
0.316158519770973
0.316158519770973
0.316158519770973
0.316158519770973
0.316158519770973
0.316158519770973
0.3240649019798709
0.5191827399370209
0.7128865880529379
1.0291344062038876
1.326602986710185
1.5949872865528196
1.765495295696192
1.7261580325465002
1.7084121465619238
1.5949872865528196
1.5115067407932918
1.5115067407932918
1.5115067407932918
1.51087965273449
1.4735053651170256
1.4341496698046317
1.407825423123316
1.407825423123316
1.407825423123316
1.4735053651170256
1.4735053651170256
1.3053483687080139
1.2468343051063648
1.2468343051063648
1.2468343051063648
1.3053483687080139
1.5380495980541342
1.631153141791461
1.631153141791461
1.631153141791461
1.631153141791461
1.631153141791461
1.631153141791461
1.631153141791461
1.631153141791461
1.631153141791461
1.5084858819989277
1.5084858819989277
1.5084858819989277
1.4825040058913963
1.4825040058913963
1.4825040058913963
1.5084858819989277
1.5084858819989277
1.5084858819989277
1.5084858819989277
1.5084858819989277
1.5536654511824424
1.5536654511824424
1.5536654511824424
1.5536654511824424
1.5210049490988868
1.5210049490988868
1.5210049490988868
1.781012954326555
1.781012954326555
1.781012954326555
1.781012954326555
1.781012954326555
1.7982761785140484
2.038370460433421
2.038370460433421
2.038370460433421
1.8498590963034456
1.8498590963034456
1.8498590963034456
2.038370460433421
2.038370460433421
1.8498590963034456
1.7844491159646845
1.7844491159646845
1.7844491159646845
1.7844491159646845
1.7960320410337343
1.7960320410337343
1.7844491159646845
1.4938628007415022
1.4938628007415022
1.7566680579131977
1.7117509067464387
1.4938628007415022
1.3989710168681175
1.3989710168681175
1.3989710168681175
1.3989710168681175
1.3989710168681175
1.3989710168681175
1.3989710168681175
1.3989710168681175
1.3989710168681175
1.6196217743999155
1.6196217743999155
1.819384491111143
1.819384491111143
1.819384491111143
2.3912627679372864
2.86882677995578
3.1478578201295657
3.1478578201295657
2.8863870509813303
2.618115047085009
2.261981268689747
2.0151181043909903
1.8676311608367242
1.7884121699702042
1.5682409818116556
1.5661402143291356
1.5141139233413943
1.5141139233413943
1.5133972441727497
1.4476353103500053
1.3380349250351196
1.2275190617693919
1.1985809996799892
1.1985809996799892
1.1985809996799892
1.1985809996799892
1.013113154116061
1.013113154116061
1.013113154116061
1.013113154116061
1.013113154116061
1.1985809996799892
1.2715404502512877
1.232355675223736
1.232355675223736
1.232355675223736
1.2853430005769129
1.377434758954457
1.3776419949225935
1.3776419949225935
1.452750318874373
1.510604974744252
1.510604974744252
1.5660896729977178
1.8107160414423031
2.115196403846136
1.895646166845802
1.8329582210248976
1.8329582210248976
1.8329582210248976
1.8329582210248976
1.8273046021218147
1.8273046021218147
1.8273046021218147
1.8273046021218147
1.8273046021218147
1.8329582210248976
1.9429487243589894
2.036570471415701
2.1346980913713116
2.143510258723624
2.143510258723624
2.357208635137171
2.458491562032805
2.571938445617837
2.571938445617837
2.571938445617837
2.571938445617837
2.5111892856868367
2.5111892856868367
2.5111892856868367
2.122956949445002
2.0839332356377342
1.9773588167231315
1.9525867068575975
1.9525867068575975
1.9525867068575975
1.9525867068575975
1.9525867068575975
1.8071431764129724
1.6369775059467886
1.4754398370164594
1.385329321574198
1.385329321574198
1.385329321574198
1.385329321574198
1.38377786893662
1.282214152898494
1.282214152898494
1.282214152898494
1.282214152898494
1.38377786893662
1.385329321574198
1.45471160208568
1.4685070705392753
1.4685070705392753
1.4685070705392753
1.4990578059304118
1.6499517494250224
1.8264932336321067
1.9050339355296648
1.926761281047517
1.926761281047517
2.2233428959876322
2.512321190458747
2.522303865258579
2.646561893786004
2.9197804945912718
2.9197804945912718
2.7042641412743373
2.7042641412743373
2.7042641412743373
2.7042641412743373
2.6622033028946137
2.6622033028946137
2.6197004251010547
2.6197004251010547
2.7042641412743373
2.7042641412743373
2.6197004251010547
2.5674831132690317
2.371634474145745
2.371634474145745
2.371634474145745
2.371634474145745
2.371634474145745
2.371634474145745
2.371634474145745
2.371634474145745
3.1504450498174776
3.272985618325544
3.272985618325544
3.272985618325544
3.1504450498174776
2.6760748917729105
2.3142880777884978
2.3142880777884978
2.167838809360316
2.0737558662250275
1.986087573668412
1.986087573668412
1.986087573668412
1.986087573668412
1.986087573668412
2.090499527185796
2.128095960802061
2.128095960802061
2.128095960802061
2.128095960802061
2.326212667276469
2.329513518330891
2.329513518330891
2.329513518330891
2.329513518330891
2.329513518330891
2.329513518330891
2.1282054020869503
2.1282054020869503
2.1282054020869503
2.1282054020869503
2.1282054020869503
1.8534488492326797
1.8023225832916572
1.7075560346755796
1.5029526141394995
1.2555163991339078
0.8391005482845709
0.5161522157504548
0.26388962615926903
0.0
0.0
0.0
0.0
0.0
0.0
0.0
0.0
0.0
0.0
0.0
0.0
0.0
0.0
0.0
2.187203934068289
2.226528168953594
2.3009993385527086
2.3928396270649213
2.299557049604925
2.223233479998881
2.223233479998881
2.223233479998881
2.223233479998881
2.223233479998881
2.223233479998881
2.226528168953594
2.258610510643471
2.258610510643471
2.258610510643471
2.417913542208317
2.4371915483567683
1.8950081009239543
1.6174171709863916
1.6174171709863916
1.6174171709863916
1.6174171709863916
1.6174171709863916
1.6174171709863916
1.6174171709863916
1.6174171709863916
1.6174171709863916
1.835655044434705
1.6430031702195584
1.4243963810900615
1.4243963810900615
1.4243963810900615
1.4243963810900615
1.4243963810900615
1.4243963810900615
1.4243963810900615
1.4243963810900615
1.4243963810900615
1.4243963810900615
1.7156799478951859
2.224018733564048
2.1342504615481923
1.9301292556413943
1.9301292556413943
1.9301292556413943
1.9301292556413943
1.9301292556413943
1.9301292556413943
1.9301292556413943
1.9301292556413943
1.9301292556413943
1.9301292556413943
2.3274735260223256
2.78676853660115
2.7893174545745207
2.7684188868595174
2.7684188868595174
2.6788257805735656
2.270399295945421
2.270399295945421
2.270399295945421
1.9649048944951535
1.680950104704821
1.6389237593046582
1.6389237593046582
1.6389237593046582
1.6389237593046582
1.4072143720900119
1.2264727133996998
1.1899885066001765
1.1850140532690407
1.1850140532690407
1.2264727133996998
1.2496972343039892
1.2574688113283532
1.2574688113283532
1.2574688113283532
1.2574688113283532
1.2574688113283532
1.3695758371630786
1.4218395965426427
1.4614292718713071
1.4218395965426427
1.4103951980317364
1.4218395965426427
1.4614292718713071
1.4614292718713071
1.4218395965426427
1.4103951980317364
1.4103951980317364
1.4103951980317364
1.4103951980317364
1.4103951980317364
