1.115106235564506
1.115106235564506
1.115106235564506
1.115106235564506
1.1344075331308447
1.3188138650373715
1.3751898189781049
1.3980390088770203
1.1428586081096344
1.1428586081096344
1.2262161727072909
1.064525265563783
0.873797046245141
0.8587485803162282
0.8587485803162282
0.8587485803162282
0.7708059866891759
0.7625561521670918
0.6838855065990976
0.6199174632100368
0.4575560574243262
0.4470910022687905
0.4470910022687905
0.4470910022687905
0.4470910022687905
0.4470910022687905
0.4470910022687905
0.4470910022687905
0.4470910022687905
0.5018095382496766
0.5356958481571
0.565773482435041
0.6034359472986196
0.6561289878106885
0.6561289878106885
0.6561289878106885
0.6561289878106885
0.6561289878106885
0.6561289878106885
0.6561289878106885
0.6991504450916698
0.6991504450916698
0.6991504450916698
0.5841328400141496
0.37640564339383914
0.33192406903732485
0.33192406903732485
0.33192406903732485
0.33192406903732485
0.33192406903732485
0.33192406903732485
0.33192406903732485
0.33192406903732485
0.33227630794523355
0.34445071255210563
0.35602639496777216
0.36062192299927387
0.36062192299927387
0.36062192299927387
0.36062192299927387
0.36062192299927387
0.3860420228578378
0.3860420228578378
0.41348641124469887
0.4564542343049758
0.5183904999315448
0.6099212301769644
0.6099212301769644
0.6099212301769644
0.6099212301769644
0.6099212301769644
0.7391713879553061
0.9260666862171107
1.1829771395053803
1.2802823047555554
1.3002872827880592
1.3490287053454535
1.3490287053454535
1.3490287053454535
1.3002872827880592
1.3002872827880592
1.2884021181909602
1.0297779424987203
0.9376842457228913
0.9376842457228913
0.9376842457228913
0.9376842457228913
0.9376842457228913
0.9376842457228913
0.9952726454244172
1.0297779424987203
1.352487294343701
1.550481543628017
1.6765042873375924
1.7809422057174937
1.9879496885660823
2.2016214847073563
2.3267284483613944
2.358306933674864
2.573239957656435
2.573239957656435
2.573239957656435
2.4776178031137377
2.4776178031137377
2.4776178031137377
2.4776178031137377
2.5922483077796334
2.501202075132205
2.4776178031137377
2.4776178031137377
2.259553160720963
2.259389595916868
2.239784934030176
2.239784934030176
2.239784934030176
2.239784934030176
2.079234753839168
2.0336846239027375
1.9141264516792893
1.8586966594031882
1.7509571353414188
1.7509571353414188
1.8412047954073119
1.8586966594031882
1.8586966594031882
1.8412047954073119
1.7886099755686624
1.7886099755686624
1.7886099755686624
1.7886099755686624
1.8487342107880953
1.8487342107880953
1.8487342107880953
1.8487342107880953
1.8487342107880953
1.8487342107880953
1.8859283219032374
1.8859283219032374
1.8487342107880953
1.8487342107880953
1.8487342107880953
1.8859283219032374
1.8859283219032374
1.7889139513932362
1.7889139513932362
1.7889139513932362
1.870373887460086
2.04295444072999
2.07073289612852
2.0866989575739607
2.0866989575739607
2.3141720609924272
2.6013204827887257
2.622770234183588
2.8466460590763734
2.6013204827887257
2.4342531079340537
2.2941678454038277
1.9734673921298962
1.9734673921298962
1.9734673921298962
1.9362346692551555
1.8406221958349382
1.680575788115212
1.5108494183527648
1.4699841560325189
1.4485515987879365
1.4485515987879365
1.4485515987879365
1.4485515987879365
1.4485515987879365
1.4485515987879365
1.4485515987879365
1.3396430386327596
1.3396430386327596
1.155478299645201
0.8747888082818377
0.8747888082818377
0.8747888082818377
0.8747888082818377
0.8747888082818377
0.8747888082818377
0.8747888082818377
0.8747888082818377
0.9381737945737306
0.9381737945737306
0.9676177700800179
1.0036962636767695
1.021686082089448
1.0447199079145413
1.0447199079145413
1.0447199079145413
1.0447199079145413
1.0447199079145413
1.0447199079145413
1.0447199079145413
1.0669524520422229
1.1931192917752034
1.2392937674582387
1.2429040702918377
1.4060616708309097
1.4517698502228862
1.47159580687024
1.832148506192385
2.04261096108239
2.1781716828742406
2.4555418118777066
2.5238921461921406
2.5238921461921406
2.685759444658355
2.8230540987565957
2.8230540987565957
2.8230540987565957
2.8230540987565957
2.8230540987565957
2.887938433553096
2.8741206790871394
2.8741206790871394
2.8741206790871394
2.8741206790871394
2.8741206790871394
2.8741206790871394
2.8741206790871394
2.8741206790871394
2.8741206790871394
2.8741206790871394
2.9808781308040664
3.297584198406862
3.303766667589844
3.4043813418781874
3.4043813418781874
3.1123134091791864
3.4043813418781874
3.435291291846674
3.435291291846674
3.1970167187604788
3.1734994966048142
3.1734994966048142
3.1734994966048142
3.1970167187604788
3.1123134091791864
2.9658710106955497
2.864958850712141
2.864958850712141
2.864958850712141
2.864958850712141
2.7350946643974114
2.7350946643974114
2.7350946643974114
2.7350946643974114
2.7350946643974114
2.6518496489195558
2.685472870503806
2.685472870503806
2.685472870503806
2.685472870503806
2.685472870503806
2.7551454694084394
2.5488279896447925
2.3835036932077203
2.3835036932077203
2.3835036932077203
2.450210977821681
2.3835036932077203
2.3835036932077203
2.3835036932077203
2.3835036932077203
2.3835036932077203
2.3835036932077203
2.5049491255204184
2.6976311094990613
3.0973465855678977
3.1424667985542025
3.1424667985542025
3.384958034115131
3.384958034115131
3.384958034115131
3.384958034115131
3.384958034115131
3.384958034115131
3.4114874390106955
3.129369193639507
3.322967591318514
3.322967591318514
3.322967591318514
3.322967591318514
3.322967591318514
3.322967591318514
3.3889872609534812
3.3889872609534812
3.2208254516457933
2.491153472069842
2.629695441873717
2.4902612646467444
2.372049018845993
1.8441241433518378
1.3346536478295206
1.2841627547547825
1.2841627547547825
1.2841627547547825
1.2841627547547825
1.2841627547547825
1.2841627547547825
1.2841627547547825
1.2841627547547825
1.2670417736121302
1.2670417736121302
1.2960114819572637
1.1630518727152277
1.103761801838245
0.8533315922342743
0.69306041288009
0.69306041288009
0.69306041288009
0.6172573393219523
0.6172573393219523
0.6172573393219523
0.5811616477325827
0.5811616477325827
0.5811616477325827
0.6172573393219523
0.6172573393219523
0.6172573393219523
0.5811616477325827
0.4717269673006818
0.46613606556627885
0.4138821682688623
0.4043902323844559
0.35656369605708177
0.35656369605708177
0.35656369605708177
0.35656369605708177
0.35656369605708177
0.35656369605708177
0.35656369605708177
0.39757080509726717
0.4149749792537468
0.4149749792537468
0.5554356285458666
0.5480499125587611
0.5894363195035364
0.49273251022096554
0.49273251022096554
0.49273251022096554
0.49273251022096554
0.48760826604031016
0.46336422951414247
0.4259556655830706
0.4081638497906163
0.4026664992579686
0.4026664992579686
0.4026664992579686
0.4026664992579686
0.4026664992579686
0.4026664992579686
0.4026664992579686
0.4026664992579686
0.3516946111151116
0.3720139558127805
0.41506270043631116
0.5342158780234723
0.6350211385772448
0.6483221117617808
0.6483221117617808
0.6483221117617808
0.6483221117617808
0.7300544296025817
0.9508568213756712
1.18799968106294
1.2067599796883406
1.225269701061788
1.225269701061788
1.2341046086858145
1.2341046086858145
1.2341046086858145
1.2341046086858145
1.2341046086858145
1.2018820276897906
1.1003071809761642
1.0134448721650517
1.0134448721650517
1.0134448721650517
1.0134448721650517
1.0134448721650517
1.0134448721650517
1.125504489001156
1.1657020686648765
1.225907608943416
1.4390188765960379
1.4968435013464256
1.708095076329392
1.838520354796939
1.9220912322674453
1.9462196601567492
2.0434347159421002
2.0434347159421002
2.256776377565887
2.256776377565887
2.256776377565887
2.0434347159421002
2.0434347159421002
2.0786784637843687
2.0786784637843687
2.0786784637843687
2.0786784637843687
2.115953377559385
2.2634721539100857
2.22119441883893
2.22119441883893
2.22119441883893
2.22119441883893
2.22119441883893
2.22119441883893
2.22119441883893
2.212293124153136
2.212293124153136
1.9785984571912196
1.9364410157287566
1.8837345159703045
1.7526197540335566
1.5531107761522933
1.5531107761522933
1.570515043293091
1.570515043293091
1.5531107761522933
1.5331394822988778
1.5331394822988778
1.5331394822988778
1.5331394822988778
1.5531107761522933
1.5531107761522933
1.4950434715202152
1.4950434715202152
1.4950434715202152
1.526236468647547
1.6369201388022498
1.6741023240280233
1.6452602897668718
1.6452602897668718
1.6452602897668718
1.651587303518622
1.6911213673060015
1.8333405566430914
1.8333405566430914
1.8333405566430914
1.8333405566430914
1.8353001429429867
1.9500918169928971
1.9668407747524137
2.042282180223962
2.042282180223962
1.7650859809659716
1.6828224652583743
1.6828224652583743
1.7241700759534966
1.5908069118521848
1.5068763728952623
1.3693671231283155
1.2295096097363623
1.1773579535418761
1.1723717477185556
1.1170144404598348
1.0659682349512762
0.8497327972263481
0.8497327972263481
0.8379526849653967
0.8298779697788986
0.7564564217919608
0.7343961405398048
0.7343673524102453
0.7225144594829678
0.7225144594829678
0.7225144594829678
0.7225144594829678
0.7225144594829678
0.7225144594829678
0.7225144594829678
0.7225144594829678
0.8136372223114797
0.8136372223114797
1.03492001163139
1.0642773988853045
1.1434036741074975
1.2463927274379134
1.3027041121675287
1.6205446674717014
1.627920275118472
1.6838369972220268
1.7040314338427511
1.7040314338427511
1.8607759493035276
1.8607759493035276
1.9260169962400486
1.9762292312989724
1.9762292312989724
1.9762292312989724
1.9762292312989724
1.9762292312989724
1.9762292312989724
1.9762292312989724
1.9762292312989724
1.9762292312989724
2.274662379024375
2.5259195001761405
2.56070565767395
2.7381655279987136
2.7381655279987136
2.7381655279987136
2.7381655279987136
2.7273377167495765
2.728253495683949
2.728253495683949
2.728253495683949
2.728253495683949
2.749096617327911
2.749096617327911
2.749096617327911
2.749096617327911
2.749096617327911
2.749096617327911
2.847796965029359
2.920745300900799
3.0771175788675045
2.920745300900799
2.895170110262366
2.895170110262366
2.895170110262366
2.848262800487501
2.606870532151163
2.606870532151163
2.606870532151163
2.606870532151163
2.606870532151163
2.606870532151163
2.6453032358225883
2.7295152605680313
2.7295152605680313
2.7295152605680313
2.7295152605680313
2.77065848433502
2.860280756737928
2.860280756737928
2.860280756737928
2.860280756737928
2.860280756737928
2.4907719459332767
2.360148921904851
2.120928597959787
2.0709000322404774
2.0709000322404774
2.0709000322404774
2.0709000322404774
2.0709000322404774
2.0709000322404774
2.0709000322404774
2.0709000322404774
2.0709000322404774
2.197903158317306
2.7552669514962953
2.939707413349383
2.978516514280553
2.978516514280553
2.9922162781470645
3.160238729929793
3.33292408485804
3.225853586988068
3.225853586988068
3.225853586988068
3.225853586988068
3.33292408485804
3.0131673344641117
3.0131673344641117
3.0131673344641117
3.0131673344641117
3.0131673344641117
2.787944139642621
2.6393539301310303
2.5780151817456662
2.5780151817456662
2.5780151817456662
2.5780151817456662
2.5780151817456662
2.5780151817456662
2.5780151817456662
2.5780151817456662
2.5780151817456662
3.08169270653441
2.5737551009691653
3.08169270653441
2.023414143132999
1.842809720516528
1.4161743539760838
1.4161743539760838
1.3067652880877765
1.3067652880877765
1.2968346463716642
1.1853995643677284
1.1853995643677284
1.1853995643677284
1.1853995643677284
1.2968346463716642
1.3067652880877765
1.3209608920592448
1.3408087816192646
1.2254125841568166
1.2254125841568166
1.2342933199464268
1.0885420807899342
1.0885420807899342
0.8255982677916808
0.6385419497577005
0.6082630645370052
0.4963149586286895
0.4696793721634839
0.44627219681481706
0.3698919325283612
0.3698919325283612
0.3698919325283612
0.3698919325283612
0.3698919325283612
0.3698919325283612
0.3698919325283612
0.3698919325283612
0.361350147514358
0.361350147514358
0.361350147514358
0.2759507225372
0.2759507225372
0.2759507225372
0.2759507225372
0.2759507225372
0.2759507225372
0.2759507225372
0.2759507225372
0.278420957379437
0.278420957379437
0.29887002737800433
0.37248703713550496
0.5085015314684507
0.3800841425988852
0.31861362624738626
0.31111173372213097
0.29887002737800433
0.2680520183283521
0.2680520183283521
0.26698776718182826
0.26698776718182826
0.26698776718182826
0.26698776718182826
0.26698776718182826
0.26698776718182826
0.26698776718182826
0.26698776718182826
0.28797339688649104
0.29392578899893407
0.2956871240240207
0.41175625858332676
0.41602329369419183
0.41602329369419183
0.41602329369419183
0.41602329369419183
0.8567061760727823
1.0071547062683257
1.1297715420247947
1.2731933366879824
1.3945192991264985
1.4923054208150552
1.4923054208150552
1.4923054208150552
1.4288096054283634
1.400774460435774
1.2243972450470422
1.1155569773237959
1.0802128247412977
1.0802128247412977
1.0802128247412977
1.0802128247412977
1.0802128247412977
1.0802128247412977
1.2243972450470422
1.366510929446234
1.4905035968510736
1.5839985910751422
1.6510226177143237
1.6949844528074114
1.8804610321431958
1.9718750109792833
2.015170061785944
2.28126812419395
2.3133488402122384
2.2951210272715037
2.2951210272715037
2.3133488402122384
2.5243513135195235
2.6695881878080727
2.6678578722361665
2.2951210272715037
2.2951210272715037
2.2951210272715037
2.2951210272715037
2.275928671621768
2.1858437974603646
2.121322438194959
1.9670590795931016
1.826937059624387
1.826937059624387
1.7540899083796073
1.7407153178349726
1.6524478708946797
1.6524478708946797
1.6524478708946797
1.5949531503796728
1.4826343272288838
1.3921749146046625
1.3921749146046625
1.3921749146046625
1.4826343272288838
1.6517857899514714
1.6517857899514714
1.6964590713238021
1.6964590713238021
1.722217187191145
1.7757245202000433
1.7757245202000433
1.7757245202000433
1.722217187191145
1.722217187191145
1.722217187191145
1.7757245202000433
1.7792320685761667
1.8083501831889666
1.8083501831889666
2.154001454405842
2.457512948716096
2.684618207378389
2.704228879950281
2.7898279481599855
2.7898279481599855
2.7575959549357103
2.754446961053106
2.704228879950281
2.754446961053106
2.4773107783965305
2.291151009983888
2.236161217264535
1.6587673011164001
1.4405985142341016
1.423716781408067
1.3284990632603462
1.2746088331216598
1.2370236974286766
1.0548130742730812
0.9550146071133584
0.9436309687605802
0.9380276433386758
0.919628146284091
0.919628146284091
0.919628146284091
0.919628146284091
0.9188063080490836
0.9144293859313835
0.9138971551174857
0.8766728035698554
0.8786722628751988
0.8766728035698554
0.8384436198778887
0.8359489622648064
0.8085267563865862
0.8036769957966641
0.8036769957966641
0.8036769957966641
0.8036769957966641
0.8085267563865862
0.8085267563865862
0.8085267563865862
0.8384436198778887
0.8520333348149479
0.8616722351235595
0.9639690155653432
1.066180251473455
1.0840018722694005
1.1749312669263348
1.2056296027883882
1.3252762614647378
1.3801396088901576
1.4399565854666219
1.5240466641336048
1.5579903289684531
1.5783008698329362
1.625377646346492
1.7803562064156608
2.1264961998820517
2.1264961998820517
2.2536905431747596
2.2536905431747596
2.2536905431747596
2.5228090636802665
2.5228090636802665
2.5228090636802665
2.5228090636802665
2.5228090636802665
2.5228090636802665
2.5228090636802665
2.6738030246027664
2.8365730606091706
3.1673048158486043
3.0670713510222387
3.108121867891818
3.1352960931547402
3.0893772721721757
3.0549712848677473
3.0549712848677473
3.0549712848677473
3.0549712848677473
3.0670713510222387
3.0670713510222387
3.0670713510222387
2.9372716232790355
2.872230759911284
2.872230759911284
2.872230759911284
2.872230759911284
2.607872957507985
2.607872957507985
2.607872957507985
2.607872957507985
2.607872957507985
2.60320696615206
2.60320696615206
2.60320696615206
2.60320696615206
2.60320696615206
2.607872957507985
2.724449842086384
2.6711515759327957
2.486103332648859
2.486103332648859
2.486103332648859
2.6864771136274754
2.2897034247730175
2.222987394680992
2.222987394680992
2.222987394680992
2.222987394680992
2.222987394680992
2.174258901216276
2.174258901216276
2.174258901216276
2.174258901216276
2.174258901216276
2.310481332347475
2.4541711646925077
2.7382874066805365
2.9879127856621044
2.9879127856621044
2.9879127856621044
3.1385350046209655
3.1385350046209655
3.1227186745626523
3.1227186745626523
3.1227186745626523
3.1227186745626523
3.240309066485156
3.248046552586673
2.9582842041423785
2.476446839800483
2.476446839800483
2.476446839800483
2.476446839800483
2.191378453065408
2.191378453065408
2.191378453065408
2.191378453065408
2.176190211824572
2.031394675906312
2.2742537085811128
2.2742537085811128
2.2553240956446086
1.9130742102690264
1.8669923747353907
1.9130742102690264
1.707007683248134
1.508725032369071
1.508725032369071
1.508725032369071
1.508725032369071
1.508725032369071
1.508725032369071
1.508725032369071
1.6622438317720931
1.3774987750453331
1.3774987750453331
1.3906870450473825
1.2018148109834403
1.2018148109834403
0.9566404469603383
0.9566404469603383
0.9555820201489423
0.9110578091888751
0.7669783432181558
0.708316900372623
0.5503414739154944
0.4795741036199574
0.4646219698145984
0.4401744934519904
0.4401744934519904
0.4401744934519904
0.4401744934519904
0.4401744934519904
0.4401744934519904
0.4401744934519904
0.46318377936432586
0.46318377936432586
0.46318377936432586
0.49258779984894696
0.5248662164557415
0.5544687092628062
0.6135559330526151
0.6162406953178412
0.640138864506604
0.640138864506604
0.6531597859812085
0.5823763901017055
0.5641716403113421
0.5641716403113421
0.5429316016902557
0.529407168721352
0.523874445479154
0.48453778878982595
0.4818883381022654
0.3463642643317646
0.2818713383122173
0.2818713383122173
0.2818713383122173
0.2818713383122173
0.2818713383122173
0.2818713383122173
0.2818713383122173
0.2818713383122173
0.2818713383122173
0.4257415224235604
0.5301831104794039
0.6071556897714143
0.6071556897714143
0.6071556897714143
0.6071556897714143
0.852524208977425
0.987711499315897
1.1867080447420935
1.3704821872697315
1.449492096182579
1.449492096182579
1.449492096182579
1.449492096182579
1.3916034144777014
1.344073179565744
1.2597225807777368
1.208448912198138
1.0362726950356866
1.0174536451604765
1.0174536451604765
1.0174536451604765
1.0174536451604765
1.0174536451604765
1.0362726950356866
1.2597225807777368
1.4373802503367485
1.9007250048460624
2.2257882324664306
2.233581710403542
2.2949570384573743
2.410050611938025
2.464181059906952
2.552709180648407
2.552709180648407
2.552709180648407
2.552709180648407
2.479455809325616
2.479455809325616
2.479455809325616
2.5282060117531495
2.5282060117531495
2.479455809325616
2.256895926938613
2.256895926938613
2.256895926938613
2.256895926938613
2.256895926938613
2.256895926938613
2.1787546860266587
2.097783071425986
2.015518977248219
2.014743640118698
1.5459178656462238
1.4449625040986878
1.3665153249512056
1.3665153249512056
1.3665153249512056
1.3665153249512056
1.3665153249512056
1.2180064011259921
1.2180064011259921
1.3665153249512056
1.4086715955747262
1.4391742917959403
1.528197030876398
1.5382828401449227
1.5382828401449227
1.5382828401449227
1.5581380957660393
1.5968886164962217
1.7431358761457012
1.9897923439712972
2.216276246424015
2.679064977988344
2.7689756162642998
2.7689756162642998
2.8067805803117896
2.870827733978855
2.870827733978855
2.870827733978855
2.870827733978855
2.870827733978855
2.8821281832574814
3.158264978902237
3.158264978902237
3.2537715634577773
3.2537715634577773
3.298317241767515
3.2819917922719943
3.158264978902237
2.901485583278468
2.1748023055285004
1.940470272509809
1.551598268397833
1.291607756985372
1.193280926559535
0.9962223237125734
0.9290582057359182
0.9141333127942135
0.9076995402287088
0.8593042449041975
0.8493860067730852
0.8000517444813113
0.7951913651013099
0.7315974121396033
0.7315974121396033
0.7315974121396033
0.7315974121396033
0.7315974121396033
0.7315974121396033
0.7315974121396033
0.7315974121396033
0.8168387411512512
0.8168387411512512
0.9495688574030111
0.9935449933795738
1.0397861728763553
1.0557422548250814
1.1007573929175711
1.129837901470839
1.1498773456421119
1.1603320871789984
1.199758278677752
1.199758278677752
1.2608896921558792
1.343010485053023
1.3920659934792814
1.4143649746521265
1.4143736724618228
1.4143736724618228
1.441064476761237
1.6466365860300956
1.652485881947222
1.6962344607765274
1.720374707630409
1.720374707630409
1.9798107275806174
1.9643955303890157
2.1250406966566517
2.4327291424445794
2.4327291424445794
2.4327291424445794
2.4327291424445794
2.627409094497721
2.654540262499407
2.710364924124643
2.710364924124643
2.710364924124643
2.7903916462866065
2.78211860122156
2.6644312279219755
2.6585023867550226
2.287303808832769
2.287303808832769
2.147291543296692
2.147291543296692
2.147291543296692
2.147291543296692
2.147291543296692
2.147291543296692
2.147291543296692
2.193476656972516
2.2745426994901123
2.70390199235244
2.840960903673407
2.9700879250627845
3.178716490356399
2.7757737153132824
2.6035127917403833
2.4394448595777147
2.4394448595777147
2.4394448595777147
2.4394448595777147
2.4394448595777147
2.4394448595777147
2.4394448595777147
2.4394448595777147
2.4394448595777147
2.4394448595777147
2.4143384846004885
2.4143384846004885
2.1000547286989746
2.0402365640599665
2.0402365640599665
1.988665673200893
1.986012220143847
1.986012220143847
1.986012220143847
1.986012220143847
1.986012220143847
1.986012220143847
1.986012220143847
1.986012220143847
2.351422043635526
3.1458130343253603
3.409789747391622
3.8422452552788395
3.7414006839562077
3.1522118546879954
3.1458130343253603
3.0783272903802663
3.0783272903802663
3.0783272903802663
2.804671541836603
2.6934549536314
2.665353026174716
2.665353026174716
2.665353026174716
2.665353026174716
2.665353026174716
2.665353026174716
2.665353026174716
2.665353026174716
2.665353026174716
2.8451000269875966
2.9983787058371605
3.015168734805995
3.450450590013628
3.450450590013628
3.450450590013628
3.549149095918161
3.3151676702441053
3.1688003538787144
3.132910888130045
3.0585345812042153
2.6273815378375707
2.0955036420598723
1.75424721551504
1.7010123957716976
1.7010123957716976
1.7010123957716976
1.7010123957716976
1.7010123957716976
1.7010123957716976
1.7010123957716976
1.4705380094449467
1.4278741753106425
1.4278741753106425
1.3343489182181216
1.3053179810256865
1.0616840812025032
0.9979518854237219
0.7926249465107775
0.7559275715369468
0.6793789792145933
0.5731787389569698
0.5562675404024878
0.5392010372217519
0.5046760175077857
0.49901219222129356
0.4893307928300785
0.40161549916326517
0.39132080525628016
0.38585409925735253
0.38585409925735253
0.38585409925735253
0.38585409925735253
0.38585409925735253
0.38585409925735253
0.38585409925735253
0.39132080525628016
0.460725224815478
0.460725224815478
0.5063520070309693
0.5063520070309693
0.5302168337329458
0.5063520070309693
0.29865307485686526
0.2416644245632159
0.22091947570285328
0.21841067758429583
0.18015402874000205
0.0
0.0
0.0
0.0
0.0
0.0
0.0
0.0
0.0
0.0
0.0
0.0
0.0
0.0
0.0
0.3281348850410047
0.7530525950255165
0.9325133782637692
1.0897292510937733
1.2237897566391827
1.3016677125440803
1.3016677125440803
1.3016677125440803
1.3016677125440803
1.3016677125440803
1.3016677125440803
1.1302754653403835
1.0673814324148303
1.0240677574715358
1.0240677574715358
1.0240677574715358
1.0240677574715358
1.0240677574715358
1.0240677574715358
1.2263505655135467
1.351237935526121
1.493377694781755
1.584943333023402
1.8090622583261606
1.9883872117518686
2.0004455761637248
2.0004455761637248
2.0632877690697047
2.1086687694725454
2.1086687694725454
2.0004455761637248
1.9958527597433589
1.9917948285931137
1.9543738154917771
1.6651084678786532
1.6651084678786532
1.6651084678786532
1.6651084678786532
1.6651084678786532
1.6651084678786532
1.7926414619417446
1.9081909080919708
1.9081909080919708
1.9081909080919708
1.91074221157385
1.9170992585549473
1.9664117840400859
1.9170992585549473
1.9081909080919708
1.8451010798795282
1.827175022518828
1.608768796439772
1.5327444067766327
1.5327444067766327
1.5306658155286457
1.4990792646859263
1.4990792646859263
1.4883414173546239
1.453374843161272
1.453374843161272
1.453374843161272
1.453374843161272
1.453374843161272
1.453374843161272
1.4531905631518103
1.4373289844119788
1.4089769982096867
1.4089769982096867
1.4089769982096867
1.4632974435089168
1.5495673306185893
1.5666236475036508
1.6788950309095716
1.6824449738098137
1.8360159720177602
1.9022045837483899
1.9110896405362021
2.093650134430312
2.2104776166873488
2.564708433025237
2.917338433002587
2.928388849228281
2.928388849228281
2.621805701867471
2.40943881987086
1.997416960830771
1.5566065924948986
1.3904048404102616
1.3904048404102616
1.3904048404102616
1.3904048404102616
1.3904048404102616
1.3904048404102616
1.3904048404102616
1.3904048404102616
1.3634911809363401
1.3634911809363401
1.28954346436357
1.2478434986164546
1.2060432414347968
1.2060432414347968
1.156738776550259
1.1067125783607847
1.0659887528553464
1.0659887528553464
1.0659887528553464
1.0659887528553464
1.0877250761039625
1.0877250761039625
1.0877250761039625
1.0877250761039625
1.0877250761039625
1.0915867930880048
1.1013217607641548
1.1051336773202889
1.1574741321745345
1.1832289290556985
1.1832289290556985
1.1832289290556985
1.273164485892909
1.5876609829652757
1.5876609829652757
1.8861272357620669
2.0632579666288153
2.097501505921787
2.3336638845109605
2.7166424340567508
2.7166424340567508
2.6304718628279478
2.2614183215684687
2.099417228303508
1.9752321206347498
1.6190444039591956
1.2934567726961068
0.8914259970352345
0.88655703234895
0.88655703234895
0.88655703234895
0.88655703234895
0.88655703234895
0.88655703234895
0.88655703234895
0.88655703234895
0.8914259970352345
1.080113667229232
1.290762214277184
1.3491215803787724
2.0233091624593027
2.0932259416262444
2.4193089793966953
2.7715231143062655
3.0271299765400923
3.0271299765400923
3.244532306193358
3.375032337625123
2.8745931896794037
2.381018157702212
1.8581528834401653
1.8409209901306673
1.6138380223698505
1.6138380223698505
1.6138380223698505
1.362470595699126
1.3080645263905575
1.2755131757183211
1.2755131757183211
1.2755131757183211
1.2755131757183211
1.2755131757183211
1.2755131757183211
1.2755131757183211
1.2755131757183211
1.2755131757183211
1.3545111795528313
1.5927450876730114
1.6150226666734901
1.6191110083470583
1.716301635120565
1.716301635120565
1.8519784817488727
2.05125317493646
2.170787051989805
2.536903867309374
2.916884134807789
2.9572803799406433
2.9572803799406433
2.07546407778869
2.07546407778869
2.07546407778869
2.07546407778869
2.07546407778869
2.07546407778869
1.9952142573883587
1.9952142573883587
1.9952142573883587
1.9952142573883587
1.9952142573883587
2.2155777214369112
2.4349151991959426
3.2918372817761945
3.3708866525841468
3.3708866525841468
3.5933242855532046
3.7607391026298287
3.6037116613036266
3.3836796532853115
3.3836796532853115
3.3836796532853115
3.1492558212639654
3.1112731671766127
3.1112731671766127
3.1112731671766127
3.1112731671766127
3.1112731671766127
2.82926357960409
2.82926357960409
2.5548528953580982
2.2529629730180694
1.7580443583292888
1.5186803846399426
1.3159657300003822
1.3159657300003822
1.3159657300003822
1.3159657300003822
1.3159657300003822
1.3159657300003822
1.3159657300003822
1.5186803846399426
1.4178066694619653
1.4178066694619653
1.5524967033489974
1.6000948432889008
1.6226369870682769
1.6226369870682769
1.5524967033489974
1.4178066694619653
1.402157846678848
1.216719982328316
0.7883168691233139
0.5568941835080181
0.5568941835080181
0.5568941835080181
0.5568941835080181
0.5568941835080181
0.5385731668917341
0.4863047098374186
0.4863047098374186
0.4863047098374186
0.4863047098374186
0.6503987837752299
0.78522650844749
1.0012980859753915
1.140960624320345
1.201619680489101
1.201619680489101
1.8686916151189126
2.0691233938339813
2.3860292599130895
1.9173986524331488
1.8686916151189126
1.8600562655756214
1.8600562655756214
1.8600562655756214
1.8600562655756214
1.8600562655756214
1.8600562655756214
1.8600562655756214
1.8600562655756214
1.8600562655756214
1.875704590441525
2.2048688886009646
2.396648360945964
2.396648360945964
2.396648360945964
2.497872671310726
2.339600496510328
2.3289281509017563
2.3289281509017563
2.3289281509017563
2.3289281509017563
2.3289281509017563
2.3289281509017563
2.339600496510328
2.1410983793215235
2.0831609318290316
2.0831609318290316
2.1410983793215235
2.0831609318290316
2.0307330502817984
2.0034712661332663
1.9793032055687028
1.959315835293167
1.959315835293167
1.959315835293167
1.959315835293167
1.959315835293167
1.959315835293167
1.959315835293167
1.959315835293167
1.959315835293167
2.3389614206051528
2.4280211105447402
2.7451778973619896
2.7451778973619896
2.7451778973619896
2.7451778973619896
2.808811852122831
2.6883324308071517
2.6883324308071517
2.6883324308071517
2.6883324308071517
2.6883324308071517
2.7939961239360755
2.7939961239360755
2.7939961239360755
2.7939961239360755
2.69386170841578
2.666549700414573
2.7939961239360755
2.7939961239360755
2.7939961239360755
2.778262449391497
2.7171595105064923
2.4952586296616124
2.305760672258778
2.084382485753171
1.769485919526926
1.7551494373099186
1.5808759415519795
1.5779345157098827
1.4755234944848328
1.4755234944848328
1.4755234944848328
1.3995759484127321
1.3470107387263512
1.339912039610703
1.3470107387263512
1.339912039610703
1.339912039610703
1.339912039610703
1.3470107387263512
1.3470107387263512
1.345331811322524
1.345331811322524
1.345331811322524
1.3599114192417958
1.5340762639093068
1.5724645836193814
1.5340762639093068
1.5340762639093068
1.7664488480936558
1.8431126377246256
1.8965056293565856
