0.045,0.045,0.055,0.035,0.02,0.035,0.05,0.045,0.035,0.025,0.035,0.05,0.055,0.065,0.055,0.045,0.025,0.025,0.025,0.02,4
-0.16,-0.175,-0.19,-0.185,-0.18,-0.165,-0.16,-0.16,-0.175,-0.165,-0.165,-0.165,-0.175,-0.18,-0.19,-0.185,-0.19,-0.19,-0.18,-0.19,1
-0.245,-0.255,-0.265,-0.265,-0.235,-0.225,-0.235,-0.24,-0.24,-0.245,-0.245,-0.22,-0.215,-0.225,-0.235,-0.255,-0.225,-0.225,-0.225,-0.22,4
-0.235,-0.235,-0.225,-0.215,-0.225,-0.23,-0.235,-0.23,-0.225,-0.215,-0.235,-0.235,-0.24,-0.245,-0.23,-0.22,-0.235,-0.23,-0.24,-0.23,4
-0.29,-0.295,-0.285,-0.3,-0.325,-0.325,-0.32,-0.31,-0.29,-0.3,-0.3,-0.325,-0.325,-0.315,-0.315,-0.315,-0.32,-0.335,-0.345,-0.335,1
-0.16,-0.155,-0.155,-0.16,-0.16,-0.165,-0.175,-0.18,-0.19,-0.195,-0.215,-0.23,-0.24,-0.23,-0.215,-0.23,-0.235,-0.26,-0.265,-0.255,3
-0.24,-0.24,-0.245,-0.235,-0.24,-0.25,-0.265,-0.27,-0.255,-0.23,-0.225,-0.23,-0.235,-0.26,-0.265,-0.255,-0.25,-0.22,-0.21,-0.215,4
-0.255,-0.26,-0.25,-0.24,-0.235,-0.245,-0.245,-0.26,-0.26,-0.265,-0.27,-0.28,-0.275,-0.24,-0.23,-0.23,-0.25,-0.265,-0.24,-0.23,3
-0.33,-0.335,-0.345,-0.34,-0.34,-0.325,-0.35,-0.35,-0.34,-0.33,-0.34,-0.345,-0.36,-0.37,-0.36,-0.35,-0.35,-0.36,-0.37,-0.39,1
-0.21,-0.205,-0.195,-0.195,-0.19,-0.205,-0.2,-0.18,-0.175,-0.17,-0.18,-0.18,-0.195,-0.165,-0.16,-0.155,-0.16,-0.16,-0.155,-0.155,2
-0.105,-0.11,-0.12,-0.12,-0.13,-0.125,-0.145,-0.16,-0.165,-0.185,-0.185,-0.17,-0.19,-0.195,-0.21,-0.24,-0.235,-0.24,-0.22,-0.22,3
0.275,0.075,0.075,0.12,0.12,0.085,0.075,0.07,0.08,0.07,0.075,0.075,0.065,0.05,0.035,-0.01,-0.02,-0.05,-0.095,-0.145,3
-0.205,-0.2,-0.21,-0.215,-0.22,-0.19,-0.19,-0.2,-0.2,-0.195,-0.16,-0.12,-0.04,0.14,0.54,0.91,0.82,0.435,0.145,0.07,2
-0.49,-0.45,-0.41,-0.39,-0.355,-0.33,-0.3,-0.295,-0.275,-0.285,-0.29,-0.29,-0.24,-0.22,-0.22,-0.235,-0.235,-0.23,-0.215,-0.21,2
-0.18,-0.185,-0.18,-0.16,-0.16,-0.175,-0.19,-0.185,-0.18,-0.165,-0.16,-0.16,-0.175,-0.165,-0.165,-0.165,-0.175,-0.18,-0.19,-0.185,3
-0.365,-0.375,-0.385,-0.385,-0.38,-0.365,-0.375,-0.385,-0.39,-0.38,-0.37,-0.365,-0.38,-0.385,-0.395,-0.385,-0.38,-0.38,-0.37,-0.39,4
-0.555,-0.5,-0.45,-0.415,-0.385,-0.365,-0.345,-0.31,-0.28,-0.28,-0.29,-0.295,-0.275,-0.245,-0.225,-0.225,-0.22,-0.235,-0.225,-0.22,2
-0.06,-0.06,-0.06,-0.055,-0.075,-0.125,-0.125,-0.13,-0.11,-0.105,-0.11,-0.12,-0.12,-0.13,-0.125,-0.145,-0.16,-0.165,-0.185,-0.185,3
-0.16,-0.21,-0.26,-0.3,-0.35,-0.42,-0.49,-0.565,-0.625,-0.675,-0.73,-0.785,-0.84,-0.86,-0.895,-0.9,-0.92,-0.915,-0.92,-0.935,3
-0.115,-0.135,-0.135,-0.15,-0.155,-0.15,-0.155,-0.135,-0.155,-0.17,-0.185,-0.165,-0.175,-0.175,-0.16,-0.185,-0.185,-0.18,-0.16,-0.18,1
-0.09,-0.1,-0.105,-0.1,-0.08,-0.065,-0.04,-0.045,-0.05,-0.04,-0.03,-0.025,-0.025,-0.025,-0.055,-0.05,-0.055,-0.025,-0.01,-0.005,2
-0.52,-0.5,-0.5,-0.515,-0.51,-0.5,-0.485,-0.48,-0.515,-0.535,-0.515,-0.505,-0.495,-0.485,-0.49,-0.49,-0.5,-0.485,-0.475,-0.47,2
-0.415,-0.425,-0.425,-0.425,-0.415,-0.405,-0.415,-0.425,-0.435,-0.43,-0.43,-0.425,-0.44,-0.435,-0.45,-0.435,-0.435,-0.445,-0.445,-0.45,1
-0.21,-0.215,-0.225,-0.22,-0.205,-0.21,-0.205,-0.215,-0.225,-0.22,-0.22,-0.22,-0.23,-0.23,-0.245,-0.23,-0.225,-0.22,-0.225,-0.23,3
-0.21,-0.21,-0.215,-0.23,-0.225,-0.225,-0.23,-0.225,-0.245,-0.255,-0.255,-0.24,-0.22,-0.225,-0.22,-0.23,-0.23,-0.23,-0.23,-0.245,1
-0.225,-0.215,-0.225,-0.23,-0.235,-0.23,-0.225,-0.215,-0.235,-0.235,-0.24,-0.245,-0.23,-0.22,-0.235,-0.23,-0.24,-0.23,-0.23,-0.23,1
-0.22,-0.235,-0.245,-0.24,-0.235,-0.22,-0.225,-0.24,-0.255,-0.235,-0.225,-0.22,-0.215,-0.225,-0.225,-0.215,-0.2,-0.19,-0.18,-0.185,2
-0.345,-0.375,-0.37,-0.355,-0.345,-0.35,-0.365,-0.365,-0.365,-0.33,-0.325,-0.335,-0.34,-0.36,-0.35,-0.345,-0.315,-0.32,-0.325,-0.355,4
-0.425,-0.435,-0.43,-0.43,-0.425,-0.44,-0.435,-0.45,-0.435,-0.435,-0.445,-0.445,-0.45,-0.46,-0.46,-0.46,-0.47,-0.485,-0.495,-0.5,3
-0.4,-0.395,-0.395,-0.4,-0.405,-0.37,-0.29,-0.23,-0.175,-0.1,-0.02,0.065,0.18,0.31,0.45,0.545,0.6,0.88,1.425,1.72,0
-0.21,-0.225,-0.23,-0.225,-0.225,-0.22,-0.23,-0.245,-0.24,-0.24,-0.225,-0.225,-0.235,-0.23,-0.24,-0.225,-0.23,-0.215,-0.225,-0.24,3
-0.205,-0.195,-0.205,-0.22,-0.225,-0.22,-0.225,-0.215,-0.22,-0.23,-0.24,-0.235,-0.23,-0.235,-0.23,-0.25,-0.265,-0.255,-0.245,-0.245,1
-0.315,-0.32,-0.335,-0.345,-0.335,-0.335,-0.33,-0.345,-0.35,-0.35,-0.345,-0.345,-0.35,-0.35,-0.36,-0.37,-0.365,-0.355,-0.355,-0.365,1
-0.09,-0.1,-0.085,-0.095,-0.08,-0.09,-0.1,-0.11,-0.1,-0.095,-0.095,-0.085,-0.095,-0.095,-0.085,-0.075,-0.07,-0.08,-0.07,-0.08,2
-0.1,-0.105,-0.1,-0.08,-0.065,-0.04,-0.045,-0.05,-0.04,-0.03,-0.025,-0.025,-0.025,-0.055,-0.05,-0.055,-0.025,-0.01,-0.005,-0.01,2
0.18,0.31,0.45,0.545,0.6,0.88,1.425,1.72,1.56,1.24,0.975,0.765,0.57,0.38,0.175,-0.01,-0.195,-0.335,-0.435,-0.49,3
-0.205,-0.205,-0.21,-0.21,-0.205,-0.195,-0.2,-0.22,-0.23,-0.225,-0.215,-0.2,-0.21,-0.22,-0.215,-0.23,-0.225,-0.22,-0.21,-0.215,1
-0.14,-0.145,-0.14,-0.12,-0.115,-0.125,-0.13,-0.12,-0.11,-0.105,-0.1,-0.105,-0.105,-0.11,-0.09,-0.08,-0.085,-0.095,-0.1,-0.085,2
-0.085,-0.095,-0.1,-0.085,-0.075,-0.075,-0.06,-0.08,-0.075,-0.08,-0.07,-0.05,-0.055,-0.055,-0.07,-0.055,-0.045,-0.045,-0.04,-0.045,2
-0.255,-0.245,-0.255,-0.265,-0.26,-0.27,-0.255,-0.245,-0.255,-0.265,-0.26,-0.275,-0.265,-0.255,-0.26,-0.27,-0.275,-0.27,-0.265,-0.24,1
-0.24,-0.25,-0.24,-0.23,-0.215,-0.2,-0.18,-0.13,-0.005,0.28,0.74,0.99,0.715,0.27,0.03,0.01,0.075,0.065,0.035,-0.005,2
0.0,0.005,0.005,-0.015,-0.005,0.005,0.01,0.02,0.01,0.005,0.01,0.025,0.03,0.03,0.03,0.025,0.03,0.05,0.055,0.05,2
-0.175,-0.18,-0.18,-0.195,-0.205,-0.185,-0.185,-0.185,-0.19,-0.19,-0.195,-0.175,-0.17,-0.175,-0.175,-0.175,-0.175,-0.14,-0.12,-0.09,2
-0.005,0.005,0.01,0.02,0.02,0.0,-0.015,-0.02,-0.025,-0.03,-0.055,-0.075,-0.085,-0.085,-0.095,-0.105,-0.125,-0.145,-0.16,-0.155,3
-0.025,-0.055,-0.085,-0.12,-0.18,-0.2,-0.235,-0.275,-0.285,-0.29,-0.31,-0.33,-0.36,-0.415,-0.445,-0.45,-0.43,-0.39,-0.335,-0.27,3
-0.125,-0.12,-0.13,-0.135,-0.15,-0.16,-0.155,-0.14,-0.155,-0.15,-0.155,-0.17,-0.165,-0.15,-0.165,-0.17,-0.18,-0.185,-0.175,-0.17,1
-0.305,-0.31,-0.3,-0.295,-0.29,-0.305,-0.305,-0.3,-0.285,-0.29,-0.29,-0.295,-0.31,-0.3,-0.3,-0.28,-0.27,-0.29,-0.29,-0.295,4
-0.23,-0.25,-0.255,-0.265,-0.26,-0.255,-0.255,-0.265,-0.275,-0.275,-0.28,-0.27,-0.27,-0.275,-0.285,-0.295,-0.285,-0.285,-0.295,-0.295,1
-0.215,-0.235,-0.25,-0.245,-0.235,-0.225,-0.22,-0.235,-0.245,-0.24,-0.235,-0.22,-0.225,-0.24,-0.255,-0.235,-0.225,-0.22,-0.215,-0.225,4
-0.375,-0.4,-0.405,-0.395,-0.38,-0.375,-0.37,-0.37,-0.365,-0.36,-0.38,-0.385,-0.39,-0.4,-0.395,-0.38,-0.365,-0.355,-0.35,-0.37,0
-0.235,-0.245,-0.25,-0.25,-0.245,-0.235,-0.215,-0.215,-0.215,-0.21,-0.165,-0.095,0.095,0.53,0.87,0.67,0.27,0.035,0.035,0.06,2
-0.005,-0.02,-0.03,-0.02,-0.015,-0.015,-0.025,-0.05,-0.075,-0.08,-0.11,-0.12,-0.125,-0.15,-0.17,-0.16,-0.17,-0.18,-0.19,-0.205,3
-0.34,-0.33,-0.335,-0.33,-0.325,-0.305,-0.29,-0.27,-0.245,-0.24,-0.235,-0.23,-0.225,-0.21,-0.21,-0.185,-0.195,-0.19,-0.175,-0.175,2
0.08,0.07,0.07,0.07,0.085,0.08,0.065,0.045,0.05,0.055,0.065,0.05,0.04,0.0,0.02,0.01,0.025,0.005,-0.005,-0.025,1
0.015,0.0,-0.025,-0.03,-0.04,-0.06,-0.055,-0.045,-0.06,-0.075,-0.08,-0.08,-0.07,-0.06,-0.05,-0.09,-0.14,-0.21,-0.265,-0.32,3
-0.505,-0.495,-0.5,-0.49,-0.475,-0.47,-0.47,-0.47,-0.47,-0.465,-0.445,-0.43,-0.405,-0.41,-0.395,-0.37,-0.36,-0.345,-0.33,-0.32,2
-1.15,-1.155,-1.145,-1.13,-1.1,-1.075,-1.04,-0.99,-0.935,-0.88,-0.83,-0.79,-0.74,-0.69,-0.645,-0.6,-0.57,-0.555,-0.525,-0.5,0
-0.235,-0.245,-0.235,-0.255,-0.265,-0.26,-0.25,-0.235,-0.23,-0.255,-0.26,-0.27,-0.27,-0.25,-0.255,-0.265,-0.27,-0.265,-0.255,-0.25,1
-0.24,-0.245,-0.235,-0.24,-0.25,-0.265,-0.27,-0.255,-0.23,-0.225,-0.23,-0.235,-0.26,-0.265,-0.255,-0.25,-0.22,-0.21,-0.215,-0.235,4
-0.08,-0.095,-0.105,-0.105,-0.095,-0.11,-0.11,-0.12,-0.125,-0.125,-0.12,-0.13,-0.135,-0.15,-0.16,-0.155,-0.14,-0.155,-0.15,-0.155,1
-0.12,-0.11,-0.11,-0.125,-0.125,-0.11,-0.095,-0.08,-0.09,-0.095,-0.095,-0.085,-0.07,-0.07,-0.075,-0.065,-0.065,-0.05,-0.04,-0.035,2
-0.21,-0.21,-0.22,-0.225,-0.21,-0.195,-0.19,-0.185,-0.185,-0.2,-0.18,-0.175,-0.165,-0.165,-0.18,-0.175,-0.16,-0.15,-0.155,-0.165,2
-0.175,-0.18,-0.19,-0.195,-0.215,-0.23,-0.24,-0.23,-0.215,-0.23,-0.235,-0.26,-0.265,-0.255,-0.25,-0.25,-0.27,-0.28,-0.275,-0.26,1
-0.055,-0.055,-0.05,-0.06,-0.065,-0.055,-0.04,-0.035,-0.04,-0.035,-0.03,-0.02,-0.005,-0.015,0.0,-0.005,-0.01,0.005,-0.005,0.0,2
-0.095,-0.1,-0.085,-0.075,-0.075,-0.06,-0.08,-0.075,-0.08,-0.07,-0.05,-0.055,-0.055,-0.07,-0.055,-0.045,-0.045,-0.04,-0.045,-0.055,4
-0.24,-0.23,-0.22,-0.23,-0.24,-0.255,-0.255,-0.24,-0.24,-0.235,-0.25,-0.265,-0.255,-0.26,-0.245,-0.25,-0.26,-0.27,-0.26,-0.25,1
-0.125,-0.12,-0.125,-0.145,-0.135,-0.15,-0.15,-0.125,-0.105,-0.1,-0.105,-0.11,-0.115,-0.12,-0.12,-0.125,-0.14,-0.14,-0.14,-0.13,3
-0.035,-0.035,-0.06,-0.085,-0.085,-0.085,-0.085,-0.08,-0.095,-0.11,-0.12,-0.125,-0.115,-0.135,-0.135,-0.15,-0.155,-0.15,-0.155,-0.135,3
-0.44,-0.445,-0.435,-0.425,-0.395,-0.39,-0.375,-0.36,-0.345,-0.345,-0.33,-0.31,-0.3,-0.29,-0.295,-0.3,-0.28,-0.27,-0.265,-0.265,2
-0.205,-0.185,-0.19,-0.19,-0.19,-0.205,-0.215,-0.195,-0.18,-0.185,-0.195,-0.22,-0.225,-0.21,-0.205,-0.19,-0.21,-0.215,-0.225,-0.22,1
-0.305,-0.315,-0.325,-0.32,-0.315,-0.305,-0.305,-0.31,-0.32,-0.315,-0.305,-0.29,-0.3,-0.3,-0.31,-0.305,-0.295,-0.29,-0.295,-0.295,4
-0.125,-0.135,-0.145,-0.15,-0.16,-0.155,-0.155,-0.155,-0.165,-0.18,-0.18,-0.18,-0.175,-0.175,-0.19,-0.2,-0.195,-0.185,-0.185,-0.19,1
-0.745,-0.795,-0.845,-0.885,-0.9,-0.895,-0.9,-0.895,-0.92,-0.92,-0.94,-0.92,-0.9,-0.9,-0.91,-0.885,-0.84,-0.8,-0.745,-0.7,2
-0.005,-0.02,-0.05,-0.085,-0.125,-0.175,-0.205,-0.26,-0.345,-0.435,-0.495,-0.545,-0.585,-0.62,-0.675,-0.73,-0.79,-0.815,-0.84,-0.855,3
-0.09,-0.105,-0.115,-0.125,-0.13,-0.135,-0.125,-0.135,-0.145,-0.15,-0.16,-0.155,-0.155,-0.155,-0.165,-0.18,-0.18,-0.18,-0.175,-0.175,1
-0.36,-0.385,-0.385,-0.385,-0.38,-0.37,-0.365,-0.365,-0.38,-0.385,-0.385,-0.38,-0.385,-0.385,-0.385,-0.39,-0.385,-0.37,-0.375,-0.37,1
-0.185,-0.185,-0.195,-0.19,-0.175,-0.175,-0.175,-0.16,-0.145,-0.12,-0.04,0.135,0.515,0.935,0.905,0.5,0.16,0.07,0.09,0.105,2
-0.17,-0.175,-0.175,-0.175,-0.175,-0.14,-0.12,-0.09,-0.03,0.155,0.605,0.91,0.69,0.275,0.075,0.075,0.12,0.12,0.085,0.075,2
-0.305,-0.29,-0.27,-0.245,-0.24,-0.235,-0.23,-0.225,-0.21,-0.21,-0.185,-0.195,-0.19,-0.175,-0.175,-0.17,-0.185,-0.185,-0.195,-0.175,2
-0.2,-0.17,-0.17,-0.17,-0.185,-0.175,-0.165,-0.15,-0.145,-0.15,-0.155,-0.155,-0.11,-0.09,-0.09,-0.085,-0.085,-0.07,-0.05,-0.04,2
-0.04,-0.03,-0.03,-0.025,-0.035,-0.045,-0.04,-0.03,-0.035,-0.05,-0.055,-0.065,-0.06,-0.06,-0.07,-0.08,-0.095,-0.105,-0.105,-0.095,3
-0.21,-0.205,-0.23,-0.235,-0.24,-0.225,-0.23,-0.25,-0.255,-0.265,-0.26,-0.255,-0.255,-0.265,-0.275,-0.275,-0.28,-0.27,-0.27,-0.275,1
-0.24,-0.24,-0.235,-0.235,-0.24,-0.25,-0.24,-0.23,-0.215,-0.2,-0.18,-0.13,-0.005,0.28,0.74,0.99,0.715,0.27,0.03,0.01,2
-0.05,-0.085,-0.125,-0.175,-0.205,-0.26,-0.345,-0.435,-0.495,-0.545,-0.585,-0.62,-0.675,-0.73,-0.79,-0.815,-0.84,-0.855,-0.855,-0.86,3
-0.3,-0.3,-0.31,-0.305,-0.295,-0.29,-0.295,-0.295,-0.3,-0.295,-0.28,-0.275,-0.27,-0.265,-0.27,-0.21,-0.125,0.12,0.57,0.82,2
-1.035,-1.055,-1.05,-1.04,-1.045,-1.025,-1.015,-0.995,-0.955,-0.91,-0.855,-0.785,-0.75,-0.72,-0.66,-0.605,-0.55,-0.505,-0.475,-0.47,2
-0.955,-0.955,-0.975,-0.965,-0.945,-0.94,-0.925,-0.915,-0.885,-0.835,-0.78,-0.74,-0.695,-0.625,-0.59,-0.56,-0.49,-0.45,-0.41,-0.39,2
-0.175,-0.185,-0.185,-0.2,-0.19,-0.185,-0.185,-0.205,-0.21,-0.22,-0.2,-0.195,-0.19,-0.2,-0.21,-0.21,-0.205,-0.195,-0.205,-0.205,1
-0.09,-0.08,-0.085,-0.095,-0.1,-0.085,-0.075,-0.075,-0.06,-0.08,-0.075,-0.08,-0.07,-0.05,-0.055,-0.055,-0.07,-0.055,-0.045,-0.045,2
-0.275,-0.275,-0.275,-0.27,-0.265,-0.265,-0.255,-0.245,-0.245,-0.235,-0.245,-0.245,-0.25,-0.25,-0.23,-0.215,-0.215,-0.215,-0.21,-0.205,2
-1.055,-1.05,-1.04,-1.045,-1.025,-1.015,-0.995,-0.955,-0.91,-0.855,-0.785,-0.75,-0.72,-0.66,-0.605,-0.55,-0.505,-0.475,-0.47,-0.435,2
-0.155,-0.155,-0.11,-0.09,-0.09,-0.085,-0.085,-0.07,-0.05,-0.04,-0.04,-0.035,-0.035,-0.04,-0.03,-0.015,-0.015,-0.02,-0.03,-0.025,2
0.025,0.025,0.025,0.02,0.0,0.005,-0.015,-0.01,-0.005,-0.035,-0.045,-0.055,-0.08,-0.07,-0.06,-0.055,-0.075,-0.095,-0.1,-0.105,3
-0.185,-0.19,-0.2,-0.195,-0.185,-0.18,-0.185,-0.185,-0.205,-0.2,-0.185,-0.175,-0.18,-0.18,-0.195,-0.205,-0.185,-0.185,-0.185,-0.19,4
-0.275,-0.28,-0.28,-0.24,-0.19,-0.1,0.185,0.65,0.825,0.51,0.135,-0.02,-0.015,0.015,-0.015,-0.035,-0.04,-0.04,-0.04,-0.04,0
-0.19,-0.18,-0.185,-0.18,-0.175,-0.165,-0.125,-0.105,-0.055,0.045,0.32,0.775,1.065,0.845,0.425,0.18,0.16,0.195,0.195,0.145,2
-0.975,-0.965,-0.98,-0.975,-0.96,-0.925,-0.885,-0.845,-0.79,-0.745,-0.71,-0.665,-0.6,-0.56,-0.51,-0.47,-0.44,-0.415,-0.37,-0.35,0
-0.205,-0.195,-0.205,-0.205,-0.21,-0.21,-0.205,-0.195,-0.2,-0.22,-0.23,-0.225,-0.215,-0.2,-0.21,-0.22,-0.215,-0.23,-0.225,-0.22,1
-0.275,-0.245,-0.225,-0.225,-0.22,-0.235,-0.225,-0.22,-0.22,-0.215,-0.23,-0.235,-0.23,-0.21,-0.18,-0.17,-0.15,-0.165,-0.14,-0.12,2
-0.18,-0.245,-0.32,-0.43,-0.52,-0.575,-0.63,-0.685,-0.755,-0.82,-0.87,-0.885,-0.92,-0.935,-0.97,-0.975,-0.975,-0.975,-0.965,-0.98,3
-0.25,-0.26,-0.24,-0.24,-0.245,-0.25,-0.265,-0.275,-0.26,-0.24,-0.25,-0.26,-0.27,-0.285,-0.27,-0.25,-0.245,-0.235,-0.245,-0.24,1
-0.9,-0.815,-0.77,-0.72,-0.68,-0.635,-0.595,-0.535,-0.5,-0.465,-0.455,-0.44,-0.44,-0.415,-0.41,-0.395,-0.395,-0.385,-0.375,-0.365,0
-0.26,-0.27,-0.26,-0.25,-0.255,-0.265,-0.27,-0.27,-0.265,-0.26,-0.27,-0.275,-0.29,-0.29,-0.275,-0.285,-0.295,-0.29,-0.29,-0.305,1
-0.28,-0.29,-0.305,-0.305,-0.3,-0.285,-0.29,-0.295,-0.31,-0.295,-0.285,-0.285,-0.275,-0.28,-0.28,-0.24,-0.19,-0.1,0.185,0.65,4
-0.095,-0.095,-0.125,-0.145,-0.155,-0.145,-0.12,-0.135,-0.145,-0.16,-0.17,-0.16,-0.155,-0.16,-0.165,-0.185,-0.195,-0.18,-0.17,-0.175,1
-0.53,-0.53,-0.545,-0.545,-0.525,-0.515,-0.525,-0.53,-0.535,-0.545,-0.53,-0.525,-0.505,-0.495,-0.5,-0.49,-0.475,-0.47,-0.47,-0.47,0
-0.29,-0.28,-0.28,-0.29,-0.295,-0.28,-0.265,-0.26,-0.255,-0.25,-0.27,-0.265,-0.25,-0.25,-0.245,-0.245,-0.255,-0.25,-0.225,-0.21,2
-0.66,-0.605,-0.55,-0.505,-0.475,-0.47,-0.435,-0.41,-0.395,-0.385,-0.375,-0.375,-0.355,-0.33,-0.295,-0.285,-0.29,-0.29,-0.28,-0.27,2
0.225,0.23,0.23,0.225,0.25,0.255,0.225,0.215,0.185,0.165,0.16,0.16,0.145,0.135,0.12,0.105,0.09,0.095,0.075,0.06,3
-0.245,-0.245,-0.23,-0.235,-0.245,-0.245,-0.245,-0.24,-0.225,-0.235,-0.235,-0.24,-0.235,-0.23,-0.225,-0.24,-0.25,-0.245,-0.24,-0.225,4
-0.36,-0.365,-0.35,-0.34,-0.31,-0.28,-0.245,-0.155,0.06,0.505,0.88,0.75,0.315,0.01,-0.07,-0.05,-0.035,-0.065,-0.095,-0.12,2
-1.04,-0.99,-0.935,-0.88,-0.83,-0.79,-0.74,-0.69,-0.645,-0.6,-0.57,-0.555,-0.525,-0.5,-0.475,-0.46,-0.465,-0.475,-0.46,-0.445,2
-0.105,-0.105,-0.08,-0.085,-0.095,-0.095,-0.105,-0.09,-0.1,-0.11,-0.1,-0.11,-0.11,-0.1,-0.09,-0.1,-0.11,-0.12,-0.12,-0.105,3
-0.045,-0.03,-0.02,-0.01,-0.015,-0.03,-0.025,-0.015,0.01,0.015,0.01,0.01,0.01,0.02,0.035,0.04,0.045,0.035,0.015,0.03,2
0.025,0.025,0.015,0.005,-0.01,-0.015,-0.01,0.0,-0.035,-0.035,-0.05,-0.055,-0.05,-0.045,-0.045,-0.055,-0.07,-0.065,-0.06,-0.06,1
-0.3,-0.29,-0.295,-0.29,-0.29,-0.29,-0.28,-0.27,-0.275,-0.275,-0.26,-0.26,-0.25,-0.24,-0.205,-0.15,-0.04,0.16,0.63,1.095,2
-0.325,-0.35,-0.325,-0.325,-0.32,-0.34,-0.345,-0.355,-0.345,-0.34,-0.345,-0.355,-0.36,-0.365,-0.36,-0.355,-0.355,-0.345,-0.36,-0.375,1
-0.18,-0.19,-0.195,-0.2,-0.17,-0.155,-0.145,-0.15,-0.145,-0.135,-0.14,-0.13,-0.14,-0.165,-0.185,-0.195,-0.19,-0.18,-0.185,-0.2,1
-1.07,-1.07,-1.07,-1.075,-1.08,-1.08,-1.07,-1.05,-1.04,-1.015,-0.985,-0.945,-0.895,-0.83,-0.77,-0.73,-0.685,-0.645,-0.59,-0.535,2
-0.235,-0.205,-0.175,-0.175,-0.165,-0.16,-0.15,-0.13,-0.13,-0.105,-0.11,-0.095,-0.095,-0.075,-0.055,-0.03,-0.03,-0.02,-0.02,-0.005,2
-0.545,-0.52,-0.52,-0.55,-0.605,-0.625,-0.605,-0.565,-0.55,-0.555,-0.55,-0.555,-0.565,-0.595,-0.62,-0.655,-0.65,-0.62,-0.59,-0.585,3
-0.275,-0.315,-0.345,-0.4,-0.47,-0.56,-0.64,-0.7,-0.75,-0.785,-0.85,-0.9,-0.945,-0.97,-0.98,-0.945,-0.93,-0.96,-1.02,-1.07,3
1.16,0.92,0.68,0.475,0.305,0.11,-0.085,-0.28,-0.4,-0.465,-0.47,-0.455,-0.46,-0.46,-0.45,-0.455,-0.435,-0.43,-0.415,-0.415,3
-0.22,-0.225,-0.23,-0.24,-0.24,-0.235,-0.23,-0.23,-0.225,-0.235,-0.25,-0.24,-0.24,-0.225,-0.235,-0.24,-0.24,-0.23,-0.235,-0.225,4
-0.505,-0.505,-0.495,-0.47,-0.445,-0.435,-0.43,-0.42,-0.42,-0.39,-0.36,-0.355,-0.34,-0.345,-0.34,-0.3,-0.285,-0.28,-0.275,-0.285,2
-0.125,-0.125,-0.13,-0.135,-0.145,-0.145,-0.16,-0.165,-0.175,-0.205,-0.22,-0.24,-0.26,-0.28,-0.33,-0.36,-0.4,-0.445,-0.475,-0.525,3
-0.105,-0.095,-0.105,-0.105,-0.105,-0.11,-0.115,-0.115,-0.115,-0.115,-0.11,-0.105,-0.12,-0.115,-0.1,-0.1,-0.095,-0.105,-0.115,-0.11,3
-0.085,-0.095,-0.095,-0.09,-0.095,-0.075,-0.075,-0.07,-0.055,-0.075,-0.075,-0.06,-0.055,-0.055,-0.05,-0.06,-0.065,-0.055,-0.04,-0.035,2
-0.26,-0.26,-0.255,-0.25,-0.25,-0.24,-0.245,-0.255,-0.26,-0.26,-0.255,-0.26,-0.26,-0.275,-0.275,-0.27,-0.255,-0.265,-0.26,-0.275,1
-0.37,-0.35,-0.345,-0.34,-0.34,-0.315,-0.3,-0.29,-0.295,-0.305,-0.305,-0.295,-0.28,-0.265,-0.265,-0.26,-0.235,-0.205,-0.175,-0.175,2
-0.205,-0.2,-0.2,-0.19,-0.2,-0.21,-0.205,-0.205,-0.205,-0.205,-0.22,-0.22,-0.21,-0.2,-0.205,-0.215,-0.215,-0.23,-0.225,-0.22,1
-0.015,-0.01,-0.015,-0.02,-0.005,0.015,0.015,0.015,0.025,0.01,0.025,0.045,0.03,0.04,0.04,0.04,0.055,0.065,0.065,0.07,2
-0.17,-0.175,-0.175,-0.165,-0.155,-0.14,-0.145,-0.14,-0.14,-0.145,-0.13,-0.11,-0.095,-0.11,-0.105,-0.115,-0.105,-0.095,-0.085,-0.09,2
-0.08,-0.055,-0.045,-0.04,-0.06,-0.055,-0.05,-0.04,-0.03,-0.02,-0.02,-0.03,-0.04,-0.02,-0.01,0.0,-0.005,0.01,0.005,0.01,2
-0.415,-0.395,-0.395,-0.42,-0.455,-0.46,-0.44,-0.43,-0.425,-0.435,-0.47,-0.47,-0.445,-0.42,-0.4,-0.395,-0.395,-0.4,-0.405,-0.37,1
-0.225,-0.22,-0.215,-0.215,-0.24,-0.255,-0.25,-0.235,-0.23,-0.24,-0.24,-0.255,-0.25,-0.24,-0.23,-0.24,-0.25,-0.26,-0.255,-0.245,4
-0.555,-0.615,-0.675,-0.73,-0.78,-0.815,-0.83,-0.86,-0.885,-0.88,-0.88,-0.88,-0.89,-0.89,-0.875,-0.845,-0.8,-0.77,-0.715,-0.65,3
-0.195,-0.21,-0.22,-0.245,-0.295,-0.335,-0.365,-0.4,-0.45,-0.505,-0.595,-0.695,-0.77,-0.825,-0.845,-0.915,-0.965,-1.025,-1.06,-1.065,3
-0.885,-0.9,-0.895,-0.9,-0.895,-0.92,-0.92,-0.94,-0.92,-0.9,-0.9,-0.91,-0.885,-0.84,-0.8,-0.745,-0.7,-0.67,-0.645,-0.6,2
-0.31,-0.32,-0.305,-0.275,-0.245,-0.235,-0.235,-0.24,-0.25,-0.26,-0.265,-0.25,-0.235,-0.225,-0.235,-0.24,-0.23,-0.235,-0.235,-0.235,2
-0.585,-0.6,-0.58,-0.585,-0.58,-0.59,-0.59,-0.6,-0.585,-0.57,-0.565,-0.565,-0.57,-0.585,-0.565,-0.56,-0.545,-0.54,-0.555,-0.545,4
-0.45,-0.415,-0.385,-0.365,-0.345,-0.31,-0.28,-0.28,-0.29,-0.295,-0.275,-0.245,-0.225,-0.225,-0.22,-0.235,-0.225,-0.22,-0.22,-0.215,2
0.82,0.435,0.145,0.07,0.09,0.085,0.065,0.045,0.04,0.03,0.005,0.005,0.0,-0.005,-0.015,-0.04,-0.045,-0.055,-0.06,-0.075,3
-0.13,-0.165,-0.195,-0.235,-0.28,-0.33,-0.4,-0.475,-0.57,-0.63,-0.685,-0.735,-0.815,-0.875,-0.925,-0.96,-0.98,-1.02,-1.035,-1.04,3
-0.035,-0.04,-0.03,-0.015,-0.02,-0.035,-0.025,-0.02,0.0,0.005,0.005,-0.015,-0.005,0.005,0.01,0.02,0.01,0.005,0.01,0.025,2
-0.255,-0.275,-0.275,-0.275,-0.26,-0.27,-0.28,-0.285,-0.29,-0.285,-0.275,-0.275,-0.275,-0.3,-0.285,-0.275,-0.29,-0.29,-0.285,-0.3,1
-0.025,-0.03,-0.04,-0.06,-0.055,-0.045,-0.06,-0.075,-0.08,-0.08,-0.07,-0.06,-0.05,-0.09,-0.14,-0.21,-0.265,-0.32,-0.385,-0.485,3
-0.275,-0.27,-0.265,-0.255,-0.26,-0.255,-0.27,-0.26,-0.25,-0.25,-0.25,-0.255,-0.255,-0.25,-0.24,-0.225,-0.235,-0.235,-0.25,-0.24,2
-0.48,-0.475,-0.48,-0.465,-0.47,-0.485,-0.495,-0.485,-0.485,-0.48,-0.48,-0.49,-0.495,-0.5,-0.49,-0.49,-0.5,-0.485,-0.51,-0.49,1
-0.04,-0.115,-0.075,-0.07,-0.09,-0.11,-0.145,-0.16,-0.15,-0.14,-0.13,-0.135,-0.145,-0.17,-0.175,-0.185,-0.195,-0.205,-0.215,-0.25,3
-0.055,-0.05,-0.055,-0.025,-0.01,-0.005,-0.01,-0.005,-0.005,0.005,0.01,0.005,0.015,0.01,0.025,0.025,0.005,0.005,-0.01,-0.005,2
-0.14,-0.145,-0.13,-0.11,-0.095,-0.11,-0.105,-0.115,-0.105,-0.095,-0.085,-0.09,-0.08,-0.09,-0.085,-0.075,-0.065,-0.06,-0.08,-0.075,2
-0.31,-0.315,-0.295,-0.28,-0.275,-0.28,-0.3,-0.325,-0.33,-0.325,-0.3,-0.285,-0.275,-0.26,-0.245,-0.25,-0.245,-0.255,-0.275,-0.265,2
0.05,0.05,0.055,0.045,0.055,0.055,0.065,0.08,0.08,0.095,0.08,0.09,0.1,0.1,0.105,0.105,0.095,0.1,0.115,0.13,2
-0.17,-0.175,-0.185,-0.2,-0.19,-0.185,-0.185,-0.175,-0.19,-0.2,-0.21,-0.19,-0.185,-0.19,-0.19,-0.195,-0.2,-0.185,-0.18,-0.19,1
-0.315,-0.305,-0.3,-0.29,-0.265,-0.255,-0.26,-0.26,-0.24,-0.24,-0.23,-0.245,-0.235,-0.235,-0.225,-0.22,-0.22,-0.22,-0.22,-0.23,2
-0.205,-0.135,-0.05,0.045,0.14,0.205,0.25,0.32,0.43,0.52,0.625,0.745,0.855,0.93,0.93,0.845,0.7,0.485,0.255,0.03,0
-0.24,-0.235,-0.24,-0.245,-0.23,-0.205,-0.17,-0.165,-0.16,-0.155,-0.155,-0.13,-0.115,-0.11,-0.11,-0.11,-0.12,-0.105,-0.095,-0.085,2
-0.5,-0.515,-0.51,-0.5,-0.485,-0.48,-0.515,-0.535,-0.515,-0.505,-0.495,-0.485,-0.49,-0.49,-0.5,-0.485,-0.475,-0.47,-0.495,-0.495,2
0.02,0.02,0.0,-0.015,-0.02,-0.025,-0.03,-0.055,-0.075,-0.085,-0.085,-0.095,-0.105,-0.125,-0.145,-0.16,-0.155,-0.155,-0.16,-0.16,3
-0.07,-0.075,-0.075,-0.09,-0.125,-0.105,-0.115,-0.125,-0.125,-0.135,-0.155,-0.155,-0.15,-0.15,-0.17,-0.17,-0.18,-0.18,-0.18,-0.165,3
-0.125,-0.115,-0.115,-0.12,-0.135,-0.11,-0.1,-0.095,-0.11,-0.105,-0.105,-0.09,-0.095,-0.085,-0.085,-0.08,-0.08,-0.055,-0.045,-0.04,2
0.03,0.04,0.035,0.03,-0.005,-0.025,-0.055,-0.085,-0.12,-0.18,-0.2,-0.235,-0.275,-0.285,-0.29,-0.31,-0.33,-0.36,-0.415,-0.445,3
-0.255,-0.25,-0.24,-0.23,-0.24,-0.25,-0.26,-0.255,-0.245,-0.24,-0.235,-0.25,-0.255,-0.255,-0.255,-0.22,-0.245,-0.255,-0.25,-0.255,4
-0.12,-0.105,-0.11,-0.11,-0.105,-0.095,-0.09,-0.1,-0.105,-0.1,-0.08,-0.065,-0.04,-0.045,-0.05,-0.04,-0.03,-0.025,-0.025,-0.025,2
-0.7,-0.685,-0.695,-0.7,-0.73,-0.75,-0.75,-0.755,-0.765,-0.76,-0.775,-0.79,-0.785,-0.795,-0.78,-0.785,-0.805,-0.815,-0.79,-0.785,3
-0.375,-0.35,-0.34,-0.29,-0.225,-0.1,0.2,0.65,0.76,0.41,0.05,-0.11,-0.075,-0.03,-0.045,-0.09,-0.095,-0.1,-0.09,-0.085,0
-0.685,-0.755,-0.82,-0.87,-0.885,-0.92,-0.935,-0.97,-0.975,-0.975,-0.975,-0.965,-0.98,-0.975,-0.96,-0.925,-0.885,-0.845,-0.79,-0.745,3
-0.225,-0.22,-0.23,-0.245,-0.24,-0.24,-0.225,-0.225,-0.235,-0.23,-0.24,-0.225,-0.23,-0.215,-0.225,-0.24,-0.245,-0.23,-0.23,-0.225,4
-0.015,-0.02,-0.035,-0.025,-0.02,0.0,0.005,0.005,-0.015,-0.005,0.005,0.01,0.02,0.01,0.005,0.01,0.025,0.03,0.03,0.03,2
-0.595,-0.595,-0.61,-0.61,-0.6,-0.59,-0.565,-0.54,-0.505,-0.515,-0.525,-0.535,-0.525,-0.515,-0.51,-0.51,-0.505,-0.48,-0.475,-0.49,2
-0.285,-0.28,-0.26,-0.27,-0.29,-0.305,-0.295,-0.285,-0.3,-0.31,-0.315,-0.295,-0.28,-0.275,-0.28,-0.3,-0.325,-0.33,-0.325,-0.3,4
0.025,0.04,0.065,0.065,0.05,0.04,0.03,0.03,0.04,0.035,0.03,-0.005,-0.025,-0.055,-0.085,-0.12,-0.18,-0.2,-0.235,-0.275,3
-0.16,-0.17,-0.18,-0.19,-0.205,-0.205,-0.21,-0.205,-0.205,-0.225,-0.225,-0.23,-0.245,-0.24,-0.24,-0.23,-0.245,-0.24,-0.25,-0.235,3
-0.27,-0.275,-0.28,-0.28,-0.27,-0.265,-0.265,-0.275,-0.29,-0.265,-0.25,-0.22,-0.215,-0.21,-0.22,-0.21,-0.195,-0.17,-0.16,-0.155,2
-0.16,-0.155,-0.16,-0.16,-0.155,-0.155,-0.14,-0.13,-0.14,-0.145,-0.145,-0.135,-0.12,-0.11,-0.11,-0.125,-0.125,-0.11,-0.095,-0.08,2
-0.34,-0.35,-0.36,-0.345,-0.33,-0.32,-0.33,-0.315,-0.305,-0.275,-0.27,-0.26,-0.255,-0.255,-0.255,-0.24,-0.215,-0.21,-0.21,-0.22,2
-0.22,-0.21,-0.215,-0.225,-0.235,-0.21,-0.22,-0.225,-0.23,-0.24,-0.24,-0.235,-0.23,-0.23,-0.225,-0.235,-0.25,-0.24,-0.24,-0.225,1
-0.235,-0.24,-0.245,-0.255,-0.26,-0.265,-0.255,-0.255,-0.255,-0.275,-0.275,-0.275,-0.26,-0.27,-0.28,-0.285,-0.29,-0.285,-0.275,-0.275,1
-0.345,-0.345,-0.34,-0.355,-0.36,-0.36,-0.345,-0.34,-0.35,-0.345,-0.355,-0.35,-0.35,-0.335,-0.35,-0.355,-0.365,-0.35,-0.34,-0.345,4
-1.145,-1.13,-1.1,-1.075,-1.04,-0.99,-0.935,-0.88,-0.83,-0.79,-0.74,-0.69,-0.645,-0.6,-0.57,-0.555,-0.525,-0.5,-0.475,-0.46,0
-0.21,-0.195,-0.17,-0.16,-0.155,-0.155,-0.155,-0.145,-0.14,-0.13,-0.14,-0.14,-0.145,-0.14,-0.12,-0.115,-0.125,-0.13,-0.12,-0.11,2
-0.935,-0.97,-0.975,-0.975,-0.975,-0.965,-0.98,-0.975,-0.96,-0.925,-0.885,-0.845,-0.79,-0.745,-0.71,-0.665,-0.6,-0.56,-0.51,-0.47,0
0.065,0.05,0.035,-0.01,-0.02,-0.05,-0.095,-0.145,-0.195,-0.245,-0.315,-0.39,-0.48,-0.555,-0.615,-0.675,-0.73,-0.78,-0.815,-0.83,3
-0.04,-0.06,-0.055,-0.05,-0.04,-0.03,-0.02,-0.02,-0.03,-0.04,-0.02,-0.01,0.0,-0.005,0.01,0.005,0.01,0.005,0.01,0.0,2
-0.11,-0.095,-0.085,-0.08,-0.08,-0.07,-0.07,-0.07,-0.065,-0.09,-0.1,-0.085,-0.095,-0.08,-0.09,-0.1,-0.11,-0.1,-0.095,-0.095,1
-0.49,-0.465,-0.455,-0.44,-0.445,-0.435,-0.425,-0.395,-0.39,-0.375,-0.36,-0.345,-0.345,-0.33,-0.31,-0.3,-0.29,-0.295,-0.3,-0.28,2
-0.125,-0.145,-0.135,-0.15,-0.15,-0.125,-0.105,-0.1,-0.105,-0.11,-0.115,-0.12,-0.12,-0.125,-0.14,-0.14,-0.14,-0.13,-0.135,-0.11,3
-0.225,-0.24,-0.235,-0.235,-0.225,-0.215,-0.225,-0.23,-0.235,-0.23,-0.225,-0.215,-0.235,-0.235,-0.24,-0.245,-0.23,-0.22,-0.235,-0.23,4
-0.375,-0.34,-0.32,-0.3,-0.3,-0.3,-0.275,-0.25,-0.245,-0.24,-0.235,-0.23,-0.205,-0.2,-0.2,-0.21,-0.215,-0.2,-0.195,-0.18,2
-0.23,-0.255,-0.26,-0.27,-0.27,-0.25,-0.255,-0.265,-0.27,-0.265,-0.255,-0.25,-0.25,-0.255,-0.265,-0.245,-0.23,-0.21,-0.2,-0.195,2
-0.205,-0.21,-0.205,-0.2,-0.205,-0.17,-0.155,-0.115,-0.03,0.06,0.155,0.25,0.33,0.415,0.55,0.73,0.905,1.01,1.015,1.135,2
-0.18,-0.19,-0.185,-0.205,-0.19,-0.185,-0.18,-0.185,-0.18,-0.215,-0.19,-0.19,-0.18,-0.185,-0.2,-0.21,-0.2,-0.2,-0.185,-0.19,4
-0.35,-0.36,-0.36,-0.35,-0.33,-0.325,-0.32,-0.325,-0.31,-0.295,-0.28,-0.275,-0.285,-0.265,-0.265,-0.255,-0.24,-0.23,-0.25,-0.25,2
-0.195,-0.185,-0.18,-0.18,-0.18,-0.175,-0.165,-0.16,-0.155,-0.15,-0.16,-0.155,-0.145,-0.13,-0.14,-0.14,-0.15,-0.145,-0.13,-0.125,2
-0.085,-0.1,-0.085,-0.07,-0.06,-0.05,-0.07,-0.075,-0.07,-0.06,-0.055,-0.04,-0.035,-0.045,-0.045,-0.025,-0.025,-0.025,-0.03,-0.045,2
-0.18,-0.205,-0.2,-0.2,-0.195,-0.195,-0.215,-0.225,-0.225,-0.215,-0.22,-0.225,-0.24,-0.25,-0.245,-0.235,-0.24,-0.25,-0.255,-0.26,1
-0.24,-0.22,-0.225,-0.22,-0.23,-0.23,-0.23,-0.23,-0.245,-0.27,-0.275,-0.275,-0.255,-0.24,-0.24,-0.23,-0.25,-0.25,-0.26,-0.24,3
-0.765,-0.705,-0.645,-0.58,-0.54,-0.495,-0.46,-0.41,-0.375,-0.34,-0.32,-0.3,-0.3,-0.3,-0.275,-0.25,-0.245,-0.24,-0.235,-0.23,2
-0.17,-0.175,-0.18,-0.195,-0.2,-0.195,-0.18,-0.18,-0.185,-0.195,-0.205,-0.185,-0.185,-0.195,-0.185,-0.195,-0.19,-0.19,-0.18,-0.18,4
-0.24,-0.23,-0.245,-0.235,-0.235,-0.225,-0.22,-0.22,-0.22,-0.22,-0.23,-0.215,-0.21,-0.215,-0.21,-0.22,-0.225,-0.215,-0.215,-0.195,2
-1.08,-1.08,-1.07,-1.05,-1.04,-1.015,-0.985,-0.945,-0.895,-0.83,-0.77,-0.73,-0.685,-0.645,-0.59,-0.535,-0.505,-0.48,-0.46,-0.435,2
0.045,0.025,0.025,0.025,0.02,0.0,0.005,-0.015,-0.01,-0.005,-0.035,-0.045,-0.055,-0.08,-0.07,-0.06,-0.055,-0.075,-0.095,-0.1,3
-0.34,-0.315,-0.265,-0.235,-0.125,0.14,0.595,0.875,0.655,0.225,-0.02,-0.065,-0.025,-0.03,-0.05,-0.085,-0.105,-0.12,-0.135,-0.125,0
-0.23,-0.24,-0.225,-0.23,-0.215,-0.225,-0.24,-0.245,-0.23,-0.23,-0.225,-0.23,-0.24,-0.25,-0.24,-0.24,-0.23,-0.225,-0.24,-0.235,1
-0.27,-0.28,-0.275,-0.24,-0.23,-0.23,-0.25,-0.265,-0.24,-0.23,-0.22,-0.22,-0.21,-0.19,-0.145,-0.04,0.235,0.71,0.875,0.545,2
-0.2,-0.21,-0.215,-0.2,-0.195,-0.18,-0.17,-0.16,-0.155,-0.135,-0.135,-0.115,-0.1,-0.1,-0.095,-0.085,-0.075,-0.065,-0.07,-0.08,0
-0.035,-0.075,-0.105,-0.135,-0.165,-0.22,-0.265,-0.305,-0.35,-0.415,-0.49,-0.56,-0.61,-0.67,-0.71,-0.765,-0.825,-0.865,-0.9,-0.92,3
-0.435,-0.47,-0.47,-0.445,-0.42,-0.4,-0.395,-0.395,-0.4,-0.405,-0.37,-0.29,-0.23,-0.175,-0.1,-0.02,0.065,0.18,0.31,0.45,2
-0.195,-0.195,-0.2,-0.205,-0.21,-0.19,-0.155,-0.145,-0.1,-0.035,0.17,0.625,0.995,0.84,0.385,0.1,0.06,0.1,0.125,0.09,2
-0.18,-0.13,-0.005,0.28,0.74,0.99,0.715,0.27,0.03,0.01,0.075,0.065,0.035,-0.005,-0.015,0.0,0.01,0.015,0.005,-0.005,1
0.08,0.1,0.105,0.105,0.095,0.095,0.09,0.09,0.1,0.095,0.085,0.07,0.065,0.065,0.075,0.065,0.055,0.03,0.025,0.03,1
-0.71,-0.665,-0.625,-0.605,-0.555,-0.5,-0.45,-0.415,-0.385,-0.365,-0.345,-0.31,-0.28,-0.28,-0.29,-0.295,-0.275,-0.245,-0.225,-0.225,2
-0.315,-0.39,-0.48,-0.555,-0.615,-0.675,-0.73,-0.78,-0.815,-0.83,-0.86,-0.885,-0.88,-0.88,-0.88,-0.89,-0.89,-0.875,-0.845,-0.8,3
0.035,0.02,0.0,-0.035,-0.075,-0.105,-0.135,-0.165,-0.22,-0.265,-0.305,-0.35,-0.415,-0.49,-0.56,-0.61,-0.67,-0.71,-0.765,-0.825,3
-0.065,-0.055,-0.075,-0.095,-0.13,-0.165,-0.195,-0.235,-0.28,-0.33,-0.4,-0.475,-0.57,-0.63,-0.685,-0.735,-0.815,-0.875,-0.925,-0.96,3
-0.93,-0.935,-0.945,-0.935,-0.93,-0.895,-0.885,-0.875,-0.845,-0.81,-0.75,-0.685,-0.635,-0.605,-0.56,-0.525,-0.48,-0.425,-0.39,-0.37,2
-0.295,-0.28,-0.275,-0.28,-0.3,-0.325,-0.33,-0.325,-0.3,-0.285,-0.275,-0.26,-0.245,-0.25,-0.245,-0.255,-0.275,-0.265,-0.27,-0.28,2
-0.04,-0.035,-0.035,-0.06,-0.07,-0.07,-0.07,-0.055,-0.065,-0.075,-0.08,-0.09,-0.08,-0.075,-0.08,-0.085,-0.1,-0.105,-0.105,-0.08,1
-0.28,-0.275,-0.27,-0.265,-0.255,-0.26,-0.255,-0.27,-0.26,-0.25,-0.25,-0.25,-0.255,-0.255,-0.25,-0.24,-0.225,-0.235,-0.235,-0.25,2
-0.21,-0.22,-0.21,-0.195,-0.17,-0.16,-0.155,-0.155,-0.155,-0.145,-0.14,-0.13,-0.14,-0.14,-0.145,-0.14,-0.12,-0.115,-0.125,-0.13,2
-0.225,-0.21,-0.205,-0.185,-0.18,-0.19,-0.175,-0.15,-0.16,-0.165,-0.145,-0.125,-0.115,-0.13,-0.125,-0.105,-0.09,-0.09,-0.095,-0.095,0
-0.105,-0.055,0.045,0.32,0.775,1.065,0.845,0.425,0.18,0.16,0.195,0.195,0.145,0.105,0.07,0.075,0.065,0.075,0.075,0.065,1
-0.215,-0.195,-0.195,-0.205,-0.21,-0.205,-0.195,-0.195,-0.19,-0.205,-0.2,-0.18,-0.175,-0.17,-0.18,-0.18,-0.195,-0.165,-0.16,-0.155,2
-0.44,-0.415,-0.37,-0.35,-0.345,-0.34,-0.34,-0.315,-0.3,-0.29,-0.295,-0.305,-0.305,-0.295,-0.28,-0.265,-0.265,-0.26,-0.235,-0.205,2
-0.555,-0.52,-0.49,-0.475,-0.47,-0.47,-0.465,-0.455,-0.44,-0.425,-0.425,-0.435,-0.455,-0.445,-0.43,-0.41,-0.44,-0.445,-0.46,-0.45,2
-0.255,-0.255,-0.24,-0.215,-0.21,-0.21,-0.22,-0.225,-0.21,-0.195,-0.19,-0.185,-0.185,-0.2,-0.18,-0.175,-0.165,-0.165,-0.18,-0.175,2
-0.595,-0.535,-0.5,-0.465,-0.455,-0.44,-0.44,-0.415,-0.41,-0.395,-0.395,-0.385,-0.375,-0.365,-0.34,-0.34,-0.35,-0.36,-0.36,-0.35,0
-0.48,-0.425,-0.39,-0.37,-0.36,-0.34,-0.325,-0.3,-0.295,-0.305,-0.295,-0.285,-0.26,-0.245,-0.23,-0.24,-0.255,-0.255,-0.245,-0.24,2
-0.26,-0.26,-0.265,-0.25,-0.26,-0.24,-0.24,-0.245,-0.25,-0.265,-0.275,-0.26,-0.24,-0.25,-0.26,-0.27,-0.285,-0.27,-0.25,-0.245,1
-0.105,-0.11,-0.115,-0.12,-0.12,-0.125,-0.14,-0.14,-0.14,-0.13,-0.135,-0.11,-0.1,-0.085,-0.085,-0.095,-0.11,-0.12,-0.145,-0.165,2
-0.32,-0.31,-0.31,-0.32,-0.32,-0.32,-0.31,-0.305,-0.315,-0.32,-0.335,-0.34,-0.335,-0.325,-0.31,-0.315,-0.345,-0.375,-0.37,-0.355,1
-0.15,-0.17,-0.16,-0.17,-0.18,-0.19,-0.205,-0.205,-0.21,-0.205,-0.205,-0.225,-0.225,-0.23,-0.245,-0.24,-0.24,-0.23,-0.245,-0.24,3
-0.34,-0.34,-0.325,-0.35,-0.35,-0.34,-0.33,-0.34,-0.345,-0.36,-0.37,-0.36,-0.35,-0.35,-0.36,-0.37,-0.39,-0.375,-0.355,-0.365,1
-0.895,-0.83,-0.77,-0.73,-0.685,-0.645,-0.59,-0.535,-0.505,-0.48,-0.46,-0.435,-0.415,-0.41,-0.395,-0.395,-0.39,-0.39,-0.365,-0.345,2
-0.17,-0.17,-0.175,-0.195,-0.19,-0.175,-0.16,-0.17,-0.175,-0.185,-0.185,-0.175,-0.17,-0.17,-0.18,-0.185,-0.2,-0.185,-0.18,-0.18,4
-0.115,-0.1,-0.1,-0.095,-0.085,-0.075,-0.065,-0.07,-0.08,-0.09,-0.085,-0.06,-0.04,-0.04,-0.045,-0.05,-0.045,-0.035,-0.02,-0.03,2
-0.095,-0.13,-0.165,-0.195,-0.235,-0.28,-0.33,-0.4,-0.475,-0.57,-0.63,-0.685,-0.735,-0.815,-0.875,-0.925,-0.96,-0.98,-1.02,-1.035,3
-0.405,-0.385,-0.38,-0.39,-0.405,-0.43,-0.45,-0.475,-0.47,-0.465,-0.455,-0.445,-0.44,-0.405,-0.395,-0.395,-0.41,-0.43,-0.455,-0.445,0
-0.545,-0.54,-0.53,-0.52,-0.53,-0.53,-0.545,-0.545,-0.525,-0.515,-0.525,-0.53,-0.535,-0.545,-0.53,-0.525,-0.505,-0.495,-0.5,-0.49,4
-0.11,-0.1,-0.09,-0.1,-0.11,-0.12,-0.12,-0.105,-0.1,-0.11,-0.11,-0.115,-0.13,-0.13,-0.12,-0.115,-0.12,-0.125,-0.12,-0.12,1
-0.12,-0.105,-0.095,-0.085,-0.09,-0.085,-0.075,-0.065,-0.05,-0.045,-0.035,-0.05,-0.045,-0.03,-0.02,-0.01,-0.015,-0.03,-0.025,-0.015,2
-0.255,-0.25,-0.22,-0.21,-0.215,-0.235,-0.235,-0.245,-0.235,-0.255,-0.265,-0.26,-0.25,-0.235,-0.23,-0.255,-0.26,-0.27,-0.27,-0.25,3
-0.215,-0.22,-0.19,-0.19,-0.2,-0.2,-0.195,-0.16,-0.12,-0.04,0.14,0.54,0.91,0.82,0.435,0.145,0.07,0.09,0.085,0.065,2
-0.79,-0.815,-0.84,-0.855,-0.855,-0.86,-0.875,-0.895,-0.885,-0.865,-0.875,-0.865,-0.865,-0.845,-0.805,-0.765,-0.71,-0.665,-0.625,-0.605,2
-0.235,-0.25,-0.275,-0.265,-0.25,-0.25,-0.25,-0.25,-0.265,-0.25,-0.255,-0.235,-0.245,-0.265,-0.265,-0.265,-0.255,-0.25,-0.265,-0.27,1
-0.25,-0.255,-0.255,-0.255,-0.22,-0.245,-0.255,-0.25,-0.255,-0.235,-0.235,-0.245,-0.25,-0.25,-0.245,-0.235,-0.215,-0.215,-0.215,-0.21,2
-0.27,-0.26,-0.25,-0.255,-0.265,-0.27,-0.27,-0.265,-0.26,-0.27,-0.275,-0.29,-0.29,-0.275,-0.285,-0.295,-0.29,-0.29,-0.305,-0.285,1
-0.2,-0.2,-0.185,-0.175,-0.185,-0.185,-0.2,-0.19,-0.185,-0.185,-0.205,-0.21,-0.22,-0.2,-0.195,-0.19,-0.2,-0.21,-0.21,-0.205,1
-0.455,-0.46,-0.46,-0.45,-0.455,-0.435,-0.43,-0.415,-0.415,-0.425,-0.425,-0.425,-0.415,-0.405,-0.415,-0.425,-0.435,-0.43,-0.43,-0.425,2
-0.54,-0.52,-0.505,-0.505,-0.505,-0.495,-0.47,-0.445,-0.435,-0.43,-0.42,-0.42,-0.39,-0.36,-0.355,-0.34,-0.345,-0.34,-0.3,-0.285,2
-0.25,-0.27,-0.28,-0.275,-0.26,-0.245,-0.26,-0.285,-0.275,-0.275,-0.275,-0.27,-0.265,-0.265,-0.255,-0.245,-0.245,-0.235,-0.245,-0.245,2
-0.355,-0.35,-0.37,-0.355,-0.325,-0.295,-0.26,-0.155,0.06,0.495,0.825,0.675,0.225,-0.04,-0.115,-0.075,-0.07,-0.09,-0.11,-0.145,2
-0.2,-0.2,-0.21,-0.215,-0.225,-0.22,-0.205,-0.21,-0.205,-0.215,-0.225,-0.22,-0.22,-0.22,-0.23,-0.23,-0.245,-0.23,-0.225,-0.22,3
0.045,0.14,0.205,0.25,0.32,0.43,0.52,0.625,0.745,0.855,0.93,0.93,0.845,0.7,0.485,0.255,0.03,-0.15,-0.33,-0.47,3
-0.175,-0.175,-0.19,-0.2,-0.195,-0.185,-0.185,-0.19,-0.19,-0.215,-0.2,-0.2,-0.19,-0.19,-0.21,-0.215,-0.21,-0.205,-0.195,-0.205,1
0.845,0.425,0.18,0.16,0.195,0.195,0.145,0.105,0.07,0.075,0.065,0.075,0.075,0.065,0.045,0.035,0.05,0.05,0.035,0.025,1
-0.2,-0.205,-0.21,-0.215,-0.22,-0.23,-0.23,-0.22,-0.21,-0.21,-0.225,-0.23,-0.225,-0.225,-0.22,-0.23,-0.245,-0.24,-0.24,-0.225,1
1.68,1.435,0.995,0.66,0.435,0.265,0.08,-0.095,-0.23,-0.3,-0.34,-0.36,-0.34,-0.32,-0.305,-0.31,-0.315,-0.31,-0.3,-0.285,3
-0.325,-0.32,-0.34,-0.345,-0.355,-0.345,-0.34,-0.345,-0.355,-0.36,-0.365,-0.36,-0.355,-0.355,-0.345,-0.36,-0.375,-0.365,-0.36,-0.355,1
-0.21,-0.21,-0.225,-0.23,-0.225,-0.225,-0.22,-0.23,-0.245,-0.24,-0.24,-0.225,-0.225,-0.235,-0.23,-0.24,-0.225,-0.23,-0.215,-0.225,1
-0.185,-0.195,-0.205,-0.185,-0.185,-0.195,-0.185,-0.195,-0.19,-0.19,-0.18,-0.18,-0.205,-0.195,-0.2,-0.185,-0.185,-0.19,-0.205,-0.215,1
-0.33,-0.325,-0.32,-0.295,-0.25,-0.155,0.11,0.55,0.765,0.485,0.115,-0.06,-0.065,-0.06,-0.07,-0.1,-0.125,-0.125,-0.13,-0.135,0
-0.225,-0.24,-0.25,-0.245,-0.235,-0.24,-0.25,-0.255,-0.26,-0.27,-0.26,-0.25,-0.255,-0.265,-0.27,-0.27,-0.265,-0.26,-0.27,-0.275,1
-0.385,-0.39,-0.385,-0.37,-0.375,-0.37,-0.38,-0.39,-0.38,-0.365,-0.36,-0.355,-0.375,-0.375,-0.37,-0.37,-0.355,-0.355,-0.36,-0.355,4
-0.09,-0.09,-0.095,-0.095,-0.06,-0.04,0.005,0.015,0.015,-0.005,-0.005,-0.02,-0.04,-0.055,-0.06,-0.06,-0.06,-0.055,-0.075,-0.125,3
-0.12,-0.18,-0.2,-0.235,-0.275,-0.285,-0.29,-0.31,-0.33,-0.36,-0.415,-0.445,-0.45,-0.43,-0.39,-0.335,-0.27,-0.22,-0.165,-0.16,3
-0.23,-0.205,-0.2,-0.2,-0.21,-0.215,-0.2,-0.195,-0.18,-0.17,-0.16,-0.155,-0.135,-0.135,-0.115,-0.1,-0.1,-0.095,-0.085,-0.075,0
-0.005,0.015,0.015,0.015,0.025,0.01,0.025,0.045,0.03,0.04,0.04,0.04,0.055,0.065,0.065,0.07,0.07,0.075,0.09,0.1,2
-0.55,-0.6,-0.6,-0.565,-0.555,-0.56,-0.575,-0.59,-0.575,-0.565,-0.56,-0.565,-0.59,-0.595,-0.575,-0.54,-0.54,-0.565,-0.59,-0.605,4
-0.62,-0.675,-0.73,-0.79,-0.815,-0.84,-0.855,-0.855,-0.86,-0.875,-0.895,-0.885,-0.865,-0.875,-0.865,-0.865,-0.845,-0.805,-0.765,-0.71,3
-0.085,-0.1,-0.13,-0.135,-0.15,-0.175,-0.21,-0.245,-0.3,-0.33,-0.38,-0.435,-0.535,-0.625,-0.695,-0.73,-0.775,-0.815,-0.88,-0.945,3
-0.32,-0.33,-0.335,-0.345,-0.34,-0.34,-0.325,-0.35,-0.35,-0.34,-0.33,-0.34,-0.345,-0.36,-0.37,-0.36,-0.35,-0.35,-0.36,-0.37,1
-0.98,-0.975,-0.96,-0.925,-0.885,-0.845,-0.79,-0.745,-0.71,-0.665,-0.6,-0.56,-0.51,-0.47,-0.44,-0.415,-0.37,-0.35,-0.345,-0.34,0
-0.585,-0.595,-0.62,-0.65,-0.68,-0.655,-0.635,-0.605,-0.575,-0.575,-0.595,-0.6,-0.63,-0.63,-0.64,-0.665,-0.64,-0.585,-0.535,-0.57,3
-0.15,-0.16,-0.155,-0.155,-0.155,-0.165,-0.18,-0.18,-0.18,-0.175,-0.175,-0.19,-0.2,-0.195,-0.185,-0.185,-0.19,-0.19,-0.215,-0.2,1
-0.11,-0.105,-0.105,-0.09,-0.095,-0.085,-0.085,-0.08,-0.08,-0.055,-0.045,-0.04,-0.06,-0.055,-0.05,-0.04,-0.03,-0.02,-0.02,-0.03,2
0.05,0.055,0.05,0.04,0.04,0.05,0.055,0.065,0.065,0.055,0.055,0.065,0.07,0.085,0.08,0.07,0.07,0.075,0.085,0.08,2
-0.26,-0.285,-0.255,-0.23,-0.245,-0.23,-0.225,-0.24,-0.235,-0.225,-0.21,-0.205,-0.21,-0.225,-0.21,-0.205,-0.185,-0.18,-0.19,-0.175,2
-0.725,-0.75,-0.755,-0.715,-0.66,-0.625,-0.59,-0.61,-0.63,-0.635,-0.63,-0.61,-0.595,-0.595,-0.61,-0.61,-0.6,-0.59,-0.565,-0.54,2
-0.54,-0.55,-0.555,-0.56,-0.565,-0.56,-0.57,-0.57,-0.585,-0.585,-0.585,-0.59,-0.585,-0.595,-0.6,-0.61,-0.6,-0.595,-0.595,-0.605,3
-0.2,-0.19,-0.185,-0.185,-0.205,-0.21,-0.22,-0.2,-0.195,-0.19,-0.2,-0.21,-0.21,-0.205,-0.195,-0.205,-0.205,-0.21,-0.21,-0.205,1
-0.255,-0.245,-0.245,-0.245,-0.255,-0.265,-0.26,-0.245,-0.25,-0.255,-0.265,-0.28,-0.26,-0.275,-0.255,-0.275,-0.275,-0.285,-0.295,-0.285,1
-0.235,-0.26,-0.265,-0.255,-0.25,-0.22,-0.21,-0.215,-0.235,-0.235,-0.245,-0.235,-0.255,-0.265,-0.26,-0.25,-0.235,-0.23,-0.255,-0.26,3
-0.185,-0.18,-0.175,-0.165,-0.125,-0.105,-0.055,0.045,0.32,0.775,1.065,0.845,0.425,0.18,0.16,0.195,0.195,0.145,0.105,0.07,2
-0.73,-0.685,-0.645,-0.59,-0.535,-0.505,-0.48,-0.46,-0.435,-0.415,-0.41,-0.395,-0.395,-0.39,-0.39,-0.365,-0.345,-0.335,-0.34,-0.35,2
-0.275,-0.275,-0.27,-0.255,-0.265,-0.26,-0.275,-0.305,-0.29,-0.285,-0.275,-0.275,-0.28,-0.29,-0.285,-0.28,-0.275,-0.265,-0.285,-0.3,4
-0.205,-0.2,-0.205,-0.21,-0.205,-0.23,-0.235,-0.24,-0.225,-0.23,-0.25,-0.255,-0.265,-0.26,-0.255,-0.255,-0.265,-0.275,-0.275,-0.28,1
-0.055,-0.08,-0.075,-0.085,-0.09,-0.105,-0.115,-0.125,-0.13,-0.135,-0.125,-0.135,-0.145,-0.15,-0.16,-0.155,-0.155,-0.155,-0.165,-0.18,3
-0.3,-0.295,-0.305,-0.315,-0.325,-0.32,-0.315,-0.305,-0.305,-0.31,-0.32,-0.315,-0.305,-0.29,-0.3,-0.3,-0.31,-0.305,-0.295,-0.29,4
-0.44,-0.445,-0.46,-0.45,-0.435,-0.435,-0.44,-0.445,-0.445,-0.455,-0.455,-0.44,-0.455,-0.45,-0.465,-0.47,-0.46,-0.46,-0.46,-0.475,1
-0.04,-0.03,-0.025,-0.025,-0.025,-0.055,-0.05,-0.055,-0.025,-0.01,-0.005,-0.01,-0.005,-0.005,0.005,0.01,0.005,0.015,0.01,0.025,2
-0.19,-0.19,-0.215,-0.2,-0.2,-0.19,-0.19,-0.21,-0.215,-0.21,-0.205,-0.195,-0.205,-0.22,-0.225,-0.22,-0.225,-0.215,-0.22,-0.23,1
-0.19,-0.185,-0.19,-0.19,-0.195,-0.2,-0.185,-0.18,-0.19,-0.195,-0.21,-0.21,-0.19,-0.18,-0.185,-0.185,-0.195,-0.19,-0.175,-0.175,4
-0.235,-0.235,-0.235,-0.2,-0.17,-0.17,-0.17,-0.185,-0.175,-0.165,-0.15,-0.145,-0.15,-0.155,-0.155,-0.11,-0.09,-0.09,-0.085,-0.085,2
-0.02,-0.03,-0.04,-0.03,-0.02,-0.025,-0.04,-0.04,-0.04,-0.055,-0.035,-0.02,-0.025,-0.035,-0.035,-0.02,-0.005,-0.015,-0.01,-0.015,2
-0.27,-0.275,-0.27,-0.265,-0.24,-0.25,-0.255,-0.255,-0.265,-0.25,-0.245,-0.245,-0.255,-0.265,-0.265,-0.235,-0.225,-0.235,-0.24,-0.24,4
-0.035,-0.05,-0.055,-0.065,-0.06,-0.06,-0.07,-0.08,-0.095,-0.105,-0.105,-0.095,-0.11,-0.11,-0.12,-0.125,-0.125,-0.12,-0.13,-0.135,3
-0.35,-0.345,-0.34,-0.34,-0.315,-0.3,-0.29,-0.295,-0.305,-0.305,-0.295,-0.28,-0.265,-0.265,-0.26,-0.235,-0.205,-0.175,-0.175,-0.165,2
-0.335,-0.35,-0.36,-0.38,-0.38,-0.375,-0.37,-0.385,-0.395,-0.4,-0.41,-0.405,-0.405,-0.415,-0.43,-0.445,-0.445,-0.435,-0.445,-0.45,1
-0.975,-0.93,-0.89,-0.835,-0.78,-0.72,-0.65,-0.595,-0.54,-0.505,-0.455,-0.42,-0.38,-0.345,-0.335,-0.325,-0.315,-0.29,-0.255,-0.24,2
-0.295,-0.275,-0.285,-0.29,-0.29,-0.24,-0.22,-0.22,-0.235,-0.235,-0.23,-0.215,-0.21,-0.22,-0.23,-0.23,-0.2,-0.155,-0.16,-0.145,2
-0.355,-0.355,-0.365,-0.375,-0.37,-0.375,-0.39,-0.385,-0.4,-0.39,-0.38,-0.36,-0.335,-0.33,-0.345,-0.38,-0.42,-0.43,-0.43,-0.42,0
-0.88,-0.83,-0.79,-0.74,-0.69,-0.645,-0.6,-0.57,-0.555,-0.525,-0.5,-0.475,-0.46,-0.465,-0.475,-0.46,-0.445,-0.425,-0.41,-0.405,2
-0.24,-0.22,-0.22,-0.235,-0.25,-0.275,-0.265,-0.25,-0.25,-0.25,-0.25,-0.265,-0.25,-0.255,-0.235,-0.245,-0.265,-0.265,-0.265,-0.255,1
-0.095,-0.095,-0.085,-0.07,-0.07,-0.075,-0.065,-0.065,-0.05,-0.04,-0.035,-0.045,-0.055,-0.055,-0.04,-0.03,-0.03,-0.04,-0.03,-0.045,2
-1.025,-1.06,-1.065,-1.07,-1.08,-1.095,-1.095,-1.08,-1.075,-1.07,-1.06,-1.045,-1.035,-1.0,-0.965,-0.92,-0.88,-0.82,-0.77,-0.7,2
-0.06,-0.065,-0.09,-0.115,-0.16,-0.21,-0.26,-0.3,-0.35,-0.42,-0.49,-0.565,-0.625,-0.675,-0.73,-0.785,-0.84,-0.86,-0.895,-0.9,3
-0.28,-0.24,-0.19,-0.1,0.185,0.65,0.825,0.51,0.135,-0.02,-0.015,0.015,-0.015,-0.035,-0.04,-0.04,-0.04,-0.04,-0.055,-0.055,1
-0.18,-0.19,-0.195,-0.21,-0.21,-0.19,-0.18,-0.185,-0.185,-0.195,-0.19,-0.175,-0.175,-0.175,-0.16,-0.145,-0.12,-0.04,0.135,0.515,2
-0.18,-0.185,-0.195,-0.22,-0.225,-0.21,-0.205,-0.19,-0.21,-0.215,-0.225,-0.22,-0.225,-0.235,-0.235,-0.24,-0.23,-0.22,-0.215,-0.215,3
0.07,0.09,0.105,0.075,0.035,0.03,0.03,0.05,0.03,0.025,0.01,0.005,0.015,0.0,-0.03,-0.06,-0.065,-0.09,-0.115,-0.16,3
-0.115,-0.03,0.06,0.155,0.25,0.33,0.415,0.55,0.73,0.905,1.01,1.015,1.135,1.52,1.68,1.435,0.995,0.66,0.435,0.265,0
-0.13,-0.14,-0.14,-0.145,-0.14,-0.12,-0.115,-0.125,-0.13,-0.12,-0.11,-0.105,-0.1,-0.105,-0.105,-0.11,-0.09,-0.08,-0.085,-0.095,2
-0.025,-0.035,-0.035,-0.035,-0.06,-0.085,-0.085,-0.085,-0.085,-0.08,-0.095,-0.11,-0.12,-0.125,-0.115,-0.135,-0.135,-0.15,-0.155,-0.15,3
-0.02,-0.035,-0.04,-0.035,-0.035,-0.045,-0.055,-0.08,-0.075,-0.085,-0.09,-0.105,-0.115,-0.125,-0.13,-0.135,-0.125,-0.135,-0.145,-0.15,3
-0.255,-0.225,-0.225,-0.225,-0.22,-0.225,-0.235,-0.23,-0.22,-0.215,-0.225,-0.24,-0.235,-0.235,-0.225,-0.215,-0.225,-0.23,-0.235,-0.23,4
-0.605,-0.61,-0.595,-0.585,-0.575,-0.59,-0.59,-0.595,-0.58,-0.57,-0.565,-0.56,-0.56,-0.55,-0.54,-0.52,-0.505,-0.505,-0.505,-0.495,2
-0.525,-0.51,-0.525,-0.55,-0.54,-0.535,-0.515,-0.525,-0.51,-0.515,-0.515,-0.515,-0.52,-0.52,-0.525,-0.525,-0.51,-0.47,-0.455,-0.485,2
-0.555,-0.555,-0.52,-0.49,-0.475,-0.47,-0.47,-0.465,-0.455,-0.44,-0.425,-0.425,-0.435,-0.455,-0.445,-0.43,-0.41,-0.44,-0.445,-0.46,2
-0.18,-0.195,-0.165,-0.16,-0.155,-0.16,-0.16,-0.155,-0.155,-0.14,-0.13,-0.14,-0.145,-0.145,-0.135,-0.12,-0.11,-0.11,-0.125,-0.125,2
-0.195,-0.185,-0.17,-0.175,-0.185,-0.2,-0.19,-0.185,-0.185,-0.175,-0.19,-0.2,-0.21,-0.19,-0.185,-0.19,-0.19,-0.195,-0.2,-0.185,1
-0.245,-0.235,-0.24,-0.25,-0.255,-0.26,-0.27,-0.26,-0.25,-0.255,-0.265,-0.27,-0.27,-0.265,-0.26,-0.27,-0.275,-0.29,-0.29,-0.275,1
-0.425,-0.405,-0.415,-0.42,-0.41,-0.395,-0.385,-0.38,-0.365,-0.365,-0.35,-0.345,-0.32,-0.31,-0.31,-0.3,-0.28,-0.26,-0.245,-0.235,0
0.075,0.065,0.045,0.035,0.05,0.05,0.035,0.025,0.005,-0.005,-0.02,-0.05,-0.085,-0.125,-0.175,-0.205,-0.26,-0.345,-0.435,-0.495,3
-0.22,-0.235,-0.24,-0.245,-0.25,-0.24,-0.24,-0.245,-0.26,-0.25,-0.245,-0.24,-0.24,-0.265,-0.265,-0.275,-0.255,-0.25,-0.255,-0.28,1
-0.48,-0.46,-0.45,-0.445,-0.45,-0.475,-0.49,-0.51,-0.5,-0.48,-0.465,-0.475,-0.505,-0.53,-0.535,-0.525,-0.51,-0.525,-0.55,-0.54,1
-0.185,-0.185,-0.18,-0.16,-0.18,-0.19,-0.19,-0.205,-0.18,-0.175,-0.185,-0.185,-0.205,-0.19,-0.19,-0.18,-0.19,-0.185,-0.205,-0.19,4
-0.205,-0.21,-0.215,-0.2,-0.18,-0.18,-0.19,-0.195,-0.2,-0.17,-0.155,-0.145,-0.15,-0.145,-0.135,-0.14,-0.13,-0.14,-0.165,-0.185,2
-0.15,-0.155,-0.135,-0.155,-0.17,-0.185,-0.165,-0.175,-0.175,-0.16,-0.185,-0.185,-0.18,-0.16,-0.18,-0.19,-0.19,-0.205,-0.18,-0.175,1
0.075,0.065,0.055,0.03,0.025,0.03,0.04,0.02,0.005,-0.015,-0.02,-0.01,-0.005,-0.015,-0.035,-0.05,-0.055,-0.04,-0.035,-0.035,1
0.75,0.315,0.01,-0.07,-0.05,-0.035,-0.065,-0.095,-0.12,-0.125,-0.12,-0.125,-0.115,-0.125,-0.145,-0.16,-0.17,-0.16,-0.17,-0.2,1
-0.61,-0.61,-0.6,-0.59,-0.565,-0.54,-0.505,-0.515,-0.525,-0.535,-0.525,-0.515,-0.51,-0.51,-0.505,-0.48,-0.475,-0.49,-0.47,-0.46,2
-0.205,-0.225,-0.215,-0.205,-0.2,-0.205,-0.21,-0.215,-0.22,-0.2,-0.2,-0.21,-0.215,-0.225,-0.22,-0.205,-0.21,-0.205,-0.215,-0.225,4
-0.29,-0.29,-0.29,-0.3,-0.315,-0.3,-0.29,-0.295,-0.28,-0.29,-0.305,-0.305,-0.3,-0.285,-0.29,-0.295,-0.31,-0.295,-0.285,-0.285,4
-0.63,-0.61,-0.595,-0.595,-0.61,-0.61,-0.6,-0.59,-0.565,-0.54,-0.505,-0.515,-0.525,-0.535,-0.525,-0.515,-0.51,-0.51,-0.505,-0.48,2
-0.255,-0.265,-0.26,-0.255,-0.255,-0.265,-0.275,-0.275,-0.28,-0.27,-0.27,-0.275,-0.285,-0.295,-0.285,-0.285,-0.295,-0.295,-0.295,-0.305,1
-0.18,-0.18,-0.19,-0.19,-0.205,-0.19,-0.19,-0.19,-0.2,-0.2,-0.21,-0.19,-0.19,-0.19,-0.205,-0.21,-0.215,-0.215,-0.21,-0.22,1
-0.82,-0.765,-0.705,-0.645,-0.58,-0.54,-0.495,-0.46,-0.41,-0.375,-0.34,-0.32,-0.3,-0.3,-0.3,-0.275,-0.25,-0.245,-0.24,-0.235,2
0.08,0.09,0.1,0.1,0.105,0.105,0.095,0.1,0.115,0.13,0.12,0.115,0.11,0.11,0.12,0.12,0.11,0.1,0.09,0.085,2
-0.47,-0.465,-0.47,-0.48,-0.475,-0.47,-0.455,-0.45,-0.445,-0.45,-0.445,-0.455,-0.435,-0.425,-0.405,-0.415,-0.42,-0.41,-0.395,-0.385,2
-0.62,-0.59,-0.585,-0.595,-0.62,-0.65,-0.68,-0.655,-0.635,-0.605,-0.575,-0.575,-0.595,-0.6,-0.63,-0.63,-0.64,-0.665,-0.64,-0.585,3
-0.015,-0.02,-0.03,-0.025,-0.015,0.005,0.005,0.015,0.015,0.005,0.015,0.04,0.025,0.025,0.01,0.02,0.04,0.045,0.055,0.055,2
-0.125,-0.11,-0.095,-0.085,-0.08,-0.08,-0.07,-0.07,-0.07,-0.065,-0.09,-0.1,-0.085,-0.095,-0.08,-0.09,-0.1,-0.11,-0.1,-0.095,0
-0.175,-0.18,-0.195,-0.18,-0.185,-0.2,-0.235,-0.225,-0.21,-0.22,-0.245,-0.26,-0.24,-0.23,-0.225,-0.245,-0.27,-0.295,-0.315,-0.285,1
-0.335,-0.31,-0.305,-0.29,-0.315,-0.335,-0.335,-0.325,-0.325,-0.325,-0.315,-0.295,-0.265,-0.25,-0.225,-0.23,-0.23,-0.225,-0.21,-0.185,2
-0.71,-0.7,-0.685,-0.685,-0.7,-0.715,-0.715,-0.7,-0.685,-0.695,-0.7,-0.73,-0.75,-0.75,-0.755,-0.765,-0.76,-0.775,-0.79,-0.785,0
-0.915,-0.975,-1.015,-1.055,-1.075,-1.08,-1.12,-1.135,-1.145,-1.145,-1.15,-1.15,-1.155,-1.145,-1.13,-1.1,-1.075,-1.04,-0.99,-0.935,3
-0.21,-0.22,-0.225,-0.23,-0.24,-0.24,-0.235,-0.23,-0.23,-0.225,-0.235,-0.25,-0.24,-0.24,-0.225,-0.235,-0.24,-0.24,-0.23,-0.235,4
-0.25,-0.265,-0.27,-0.255,-0.23,-0.225,-0.23,-0.235,-0.26,-0.265,-0.255,-0.25,-0.22,-0.21,-0.215,-0.235,-0.235,-0.245,-0.235,-0.255,4
-0.27,-0.28,-0.285,-0.29,-0.285,-0.275,-0.275,-0.275,-0.3,-0.285,-0.275,-0.29,-0.29,-0.285,-0.3,-0.29,-0.295,-0.285,-0.3,-0.325,1
0.055,0.045,0.025,0.025,0.025,0.02,0.0,0.005,-0.015,-0.01,-0.005,-0.035,-0.045,-0.055,-0.08,-0.07,-0.06,-0.055,-0.075,-0.095,3
-0.27,-0.255,-0.23,-0.225,-0.23,-0.235,-0.26,-0.265,-0.255,-0.25,-0.22,-0.21,-0.215,-0.235,-0.235,-0.245,-0.235,-0.255,-0.265,-0.26,3
-0.045,0.15,0.57,0.935,0.82,0.415,0.12,0.035,0.065,0.085,0.075,0.05,0.025,0.02,0.02,0.05,0.05,0.07,0.065,0.05,1
-0.37,-0.355,-0.345,-0.35,-0.365,-0.365,-0.365,-0.33,-0.325,-0.335,-0.34,-0.36,-0.35,-0.345,-0.315,-0.32,-0.325,-0.355,-0.35,-0.36,4
-0.175,-0.19,-0.2,-0.18,-0.17,-0.175,-0.18,-0.195,-0.19,-0.19,-0.18,-0.185,-0.19,-0.2,-0.195,-0.185,-0.18,-0.185,-0.185,-0.205,4
-0.875,-0.845,-0.8,-0.77,-0.715,-0.65,-0.61,-0.56,-0.5,-0.44,-0.395,-0.35,-0.32,-0.275,-0.24,-0.24,-0.235,-0.235,-0.235,-0.2,0
0.005,0.015,0.01,0.025,0.025,0.005,0.005,-0.01,-0.005,0.005,0.01,0.02,0.02,0.0,-0.015,-0.02,-0.025,-0.03,-0.055,-0.075,3
0.08,0.09,0.085,0.08,0.07,0.065,0.065,0.07,0.065,0.05,0.045,0.035,0.025,0.035,0.025,0.005,-0.005,-0.015,-0.015,-0.025,3
-0.35,-0.42,-0.49,-0.565,-0.625,-0.675,-0.73,-0.785,-0.84,-0.86,-0.895,-0.9,-0.92,-0.915,-0.92,-0.935,-0.93,-0.93,-0.91,-0.89,3
-0.025,-0.025,-0.03,-0.045,-0.03,-0.015,0.0,-0.015,-0.01,-0.025,-0.02,-0.005,-0.01,-0.02,-0.025,-0.05,-0.035,-0.03,-0.03,-0.04,1
-0.18,-0.2,-0.205,-0.195,-0.185,-0.18,-0.2,-0.21,-0.21,-0.215,-0.205,-0.195,-0.21,-0.21,-0.22,-0.22,-0.21,-0.205,-0.215,-0.205,1
-0.56,-0.5,-0.44,-0.395,-0.35,-0.32,-0.275,-0.24,-0.24,-0.235,-0.235,-0.235,-0.2,-0.17,-0.17,-0.17,-0.185,-0.175,-0.165,-0.15,2
-0.2,-0.185,-0.19,-0.2,-0.205,-0.195,-0.195,-0.185,-0.185,-0.195,-0.205,-0.205,-0.2,-0.2,-0.19,-0.2,-0.21,-0.205,-0.205,-0.205,4
-0.89,-0.835,-0.78,-0.72,-0.65,-0.595,-0.54,-0.505,-0.455,-0.42,-0.38,-0.345,-0.335,-0.325,-0.315,-0.29,-0.255,-0.24,-0.225,-0.235,2
-0.14,-0.155,-0.195,-0.205,-0.195,-0.21,-0.22,-0.245,-0.295,-0.335,-0.365,-0.4,-0.45,-0.505,-0.595,-0.695,-0.77,-0.825,-0.845,-0.915,3
-0.495,-0.47,-0.445,-0.435,-0.43,-0.42,-0.42,-0.39,-0.36,-0.355,-0.34,-0.345,-0.34,-0.3,-0.285,-0.28,-0.275,-0.285,-0.275,-0.275,2
-0.18,-0.185,-0.18,-0.215,-0.19,-0.19,-0.18,-0.185,-0.2,-0.21,-0.2,-0.2,-0.185,-0.19,-0.2,-0.205,-0.195,-0.195,-0.185,-0.185,4
-0.205,-0.2,-0.2,-0.2,-0.2,-0.21,-0.22,-0.22,-0.21,-0.205,-0.205,-0.22,-0.23,-0.23,-0.23,-0.22,-0.22,-0.235,-0.24,-0.245,1
-0.045,-0.05,-0.05,-0.035,-0.04,-0.03,-0.015,-0.02,-0.035,-0.025,-0.02,0.0,0.005,0.005,-0.015,-0.005,0.005,0.01,0.02,0.01,2
-0.11,-0.11,-0.115,-0.13,-0.13,-0.12,-0.115,-0.12,-0.125,-0.12,-0.12,-0.115,-0.12,-0.13,-0.13,-0.145,-0.14,-0.125,-0.135,-0.145,1
0.015,-0.005,-0.005,-0.005,-0.005,-0.005,-0.025,-0.03,-0.03,-0.025,-0.035,-0.045,-0.07,-0.07,-0.1,-0.115,-0.16,-0.2,-0.24,-0.27,3
-0.935,-0.88,-0.83,-0.79,-0.74,-0.69,-0.645,-0.6,-0.57,-0.555,-0.525,-0.5,-0.475,-0.46,-0.465,-0.475,-0.46,-0.445,-0.425,-0.41,2
0.825,0.675,0.225,-0.04,-0.115,-0.075,-0.07,-0.09,-0.11,-0.145,-0.16,-0.15,-0.14,-0.13,-0.135,-0.145,-0.17,-0.175,-0.185,-0.195,1
-0.255,-0.28,-0.275,-0.27,-0.265,-0.255,-0.26,-0.255,-0.27,-0.26,-0.25,-0.25,-0.25,-0.255,-0.255,-0.25,-0.24,-0.225,-0.235,-0.235,2
-0.46,-0.455,-0.44,-0.42,-0.43,-0.46,-0.475,-0.47,-0.47,-0.465,-0.47,-0.48,-0.475,-0.47,-0.45,-0.43,-0.42,-0.415,-0.415,-0.43,2
-0.58,-0.59,-0.575,-0.575,-0.57,-0.585,-0.6,-0.58,-0.585,-0.58,-0.59,-0.59,-0.6,-0.585,-0.57,-0.565,-0.565,-0.57,-0.585,-0.565,4
-0.18,-0.18,-0.185,-0.195,-0.205,-0.185,-0.185,-0.195,-0.185,-0.195,-0.19,-0.19,-0.18,-0.18,-0.205,-0.195,-0.2,-0.185,-0.185,-0.19,2
-0.61,-0.56,-0.54,-0.5,-0.48,-0.465,-0.465,-0.455,-0.445,-0.405,-0.39,-0.38,-0.37,-0.37,-0.375,-0.38,-0.365,-0.375,-0.38,-0.39,2
0.93,0.93,0.845,0.7,0.485,0.255,0.03,-0.15,-0.33,-0.47,-0.585,-0.655,-0.66,-0.61,-0.58,-0.565,-0.565,-0.57,-0.575,-0.565,3
-0.595,-0.605,-0.605,-0.61,-0.595,-0.585,-0.575,-0.59,-0.59,-0.595,-0.58,-0.57,-0.565,-0.56,-0.56,-0.55,-0.54,-0.52,-0.505,-0.505,2
-0.53,-0.48,-0.445,-0.425,-0.415,-0.38,-0.35,-0.335,-0.325,-0.33,-0.33,-0.33,-0.295,-0.28,-0.27,-0.275,-0.28,-0.28,-0.27,-0.265,2
0.075,0.09,0.1,0.09,0.095,0.09,0.08,0.1,0.105,0.105,0.095,0.095,0.09,0.09,0.1,0.095,0.085,0.07,0.065,0.065,1
-0.135,-0.135,-0.115,-0.1,-0.1,-0.095,-0.085,-0.075,-0.065,-0.07,-0.08,-0.09,-0.085,-0.06,-0.04,-0.04,-0.045,-0.05,-0.045,-0.035,2
-0.2,-0.21,-0.21,-0.205,-0.195,-0.205,-0.205,-0.21,-0.21,-0.205,-0.195,-0.2,-0.22,-0.23,-0.225,-0.215,-0.2,-0.21,-0.22,-0.215,1
-0.19,-0.205,-0.225,-0.215,-0.215,-0.21,-0.21,-0.215,-0.23,-0.225,-0.225,-0.23,-0.225,-0.245,-0.255,-0.255,-0.24,-0.22,-0.225,-0.22,1
0.17,0.625,0.995,0.84,0.385,0.1,0.06,0.1,0.125,0.09,0.05,0.035,0.025,0.04,0.065,0.065,0.05,0.04,0.03,0.03,1
-0.385,-0.365,-0.345,-0.31,-0.28,-0.28,-0.29,-0.295,-0.275,-0.245,-0.225,-0.225,-0.22,-0.235,-0.225,-0.22,-0.22,-0.215,-0.23,-0.235,2
-0.35,-0.35,-0.375,-0.37,-0.365,-0.355,-0.36,-0.365,-0.36,-0.36,-0.355,-0.37,-0.375,-0.35,-0.34,-0.29,-0.225,-0.1,0.2,0.65,2
-0.215,-0.225,-0.24,-0.23,-0.195,-0.21,-0.23,-0.245,-0.225,-0.225,-0.215,-0.235,-0.23,-0.245,-0.25,-0.24,-0.22,-0.215,-0.215,-0.225,1
-1.075,-1.04,-0.99,-0.935,-0.88,-0.83,-0.79,-0.74,-0.69,-0.645,-0.6,-0.57,-0.555,-0.525,-0.5,-0.475,-0.46,-0.465,-0.475,-0.46,2
-0.26,-0.26,-0.26,-0.255,-0.26,-0.255,-0.27,-0.26,-0.27,-0.255,-0.275,-0.28,-0.285,-0.28,-0.28,-0.27,-0.275,-0.28,-0.285,-0.295,1
-0.06,-0.055,-0.075,-0.125,-0.125,-0.13,-0.11,-0.105,-0.11,-0.12,-0.12,-0.13,-0.125,-0.145,-0.16,-0.165,-0.185,-0.185,-0.17,-0.19,3
-0.21,-0.205,-0.195,-0.205,-0.21,-0.205,-0.2,-0.205,-0.17,-0.155,-0.115,-0.03,0.06,0.155,0.25,0.33,0.415,0.55,0.73,0.905,2
0.055,0.04,0.055,0.055,0.075,0.07,0.065,0.06,0.05,0.06,0.085,0.085,0.07,0.06,0.06,0.08,0.09,0.085,0.08,0.07,4
0.065,0.055,0.045,0.025,0.025,0.025,0.02,0.0,0.005,-0.015,-0.01,-0.005,-0.035,-0.045,-0.055,-0.08,-0.07,-0.06,-0.055,-0.075,3
1.095,1.085,0.765,0.565,0.605,0.795,0.965,1.12,1.265,1.41,1.5,1.495,1.375,1.16,0.92,0.68,0.475,0.305,0.11,-0.085,3
-0.26,-0.26,-0.275,-0.275,-0.27,-0.255,-0.265,-0.26,-0.275,-0.305,-0.29,-0.285,-0.275,-0.275,-0.28,-0.29,-0.285,-0.28,-0.275,-0.265,1
-0.49,-0.56,-0.61,-0.67,-0.71,-0.765,-0.825,-0.865,-0.9,-0.92,-0.925,-0.935,-0.93,-0.935,-0.945,-0.935,-0.93,-0.895,-0.885,-0.875,3
-0.485,-0.48,-0.47,-0.465,-0.47,-0.48,-0.475,-0.47,-0.455,-0.45,-0.445,-0.45,-0.445,-0.455,-0.435,-0.425,-0.405,-0.415,-0.42,-0.41,2
-0.23,-0.215,-0.19,-0.15,-0.14,-0.105,-0.12,-0.155,-0.18,-0.185,-0.18,-0.175,-0.135,-0.11,-0.11,-0.125,-0.12,-0.125,-0.145,-0.135,2
-0.335,-0.345,-0.335,-0.335,-0.33,-0.345,-0.35,-0.35,-0.345,-0.345,-0.35,-0.35,-0.36,-0.37,-0.365,-0.355,-0.355,-0.365,-0.385,-0.375,1
-0.175,-0.19,-0.185,-0.18,-0.165,-0.16,-0.16,-0.175,-0.165,-0.165,-0.165,-0.175,-0.18,-0.19,-0.185,-0.19,-0.19,-0.18,-0.19,-0.205,1
-0.005,-0.005,-0.005,-0.005,-0.025,-0.03,-0.03,-0.025,-0.035,-0.045,-0.07,-0.07,-0.1,-0.115,-0.16,-0.2,-0.24,-0.27,-0.3,-0.365,3
0.16,0.145,0.135,0.12,0.105,0.09,0.095,0.075,0.06,0.035,0.03,0.025,0.025,0.015,0.005,-0.01,-0.015,-0.01,0.0,-0.035,3
-0.255,-0.265,-0.27,-0.265,-0.255,-0.25,-0.25,-0.255,-0.265,-0.245,-0.23,-0.21,-0.2,-0.195,-0.215,-0.24,-0.23,-0.235,-0.205,-0.205,2
-0.49,-0.49,-0.49,-0.505,-0.515,-0.52,-0.51,-0.51,-0.515,-0.52,-0.54,-0.535,-0.55,-0.535,-0.54,-0.55,-0.555,-0.56,-0.565,-0.56,1
-0.255,-0.275,-0.265,-0.27,-0.28,-0.275,-0.275,-0.285,-0.32,-0.36,-0.36,-0.36,-0.36,-0.355,-0.355,-0.365,-0.375,-0.37,-0.375,-0.39,3
-0.08,-0.055,-0.075,-0.08,-0.075,-0.08,-0.065,-0.045,-0.045,-0.05,-0.05,-0.035,-0.04,-0.03,-0.015,-0.02,-0.035,-0.025,-0.02,0.0,2
-0.275,-0.275,-0.26,-0.26,-0.25,-0.24,-0.205,-0.15,-0.04,0.16,0.63,1.095,1.085,0.765,0.565,0.605,0.795,0.965,1.12,1.265,2
-0.22,-0.22,-0.21,-0.205,-0.205,-0.22,-0.23,-0.23,-0.23,-0.22,-0.22,-0.235,-0.24,-0.245,-0.25,-0.24,-0.24,-0.245,-0.26,-0.25,1
-0.155,-0.155,-0.14,-0.145,-0.16,-0.155,-0.17,-0.165,-0.16,-0.16,-0.18,-0.185,-0.195,-0.18,-0.175,-0.18,-0.175,-0.19,-0.19,-0.195,1
-0.075,-0.08,-0.085,-0.1,-0.105,-0.105,-0.08,-0.085,-0.095,-0.095,-0.105,-0.09,-0.1,-0.11,-0.1,-0.11,-0.11,-0.1,-0.09,-0.1,3
-0.56,-0.49,-0.45,-0.41,-0.39,-0.355,-0.33,-0.3,-0.295,-0.275,-0.285,-0.29,-0.29,-0.24,-0.22,-0.22,-0.235,-0.235,-0.23,-0.215,2
-0.15,-0.13,-0.13,-0.105,-0.11,-0.095,-0.095,-0.075,-0.055,-0.03,-0.03,-0.02,-0.02,-0.005,0.0,-0.005,-0.02,-0.03,-0.04,-0.03,2
-0.32,-0.275,-0.24,-0.24,-0.235,-0.235,-0.235,-0.2,-0.17,-0.17,-0.17,-0.185,-0.175,-0.165,-0.15,-0.145,-0.15,-0.155,-0.155,-0.11,2
-0.055,-0.045,-0.06,-0.075,-0.08,-0.08,-0.07,-0.06,-0.05,-0.09,-0.14,-0.21,-0.265,-0.32,-0.385,-0.485,-0.6,-0.695,-0.755,-0.785,3
-0.13,-0.125,-0.125,-0.125,-0.135,-0.13,-0.11,-0.1,-0.115,-0.12,-0.12,-0.11,-0.085,-0.095,-0.095,-0.09,-0.095,-0.075,-0.075,-0.07,2
-0.38,-0.385,-0.385,-0.38,-0.385,-0.385,-0.385,-0.39,-0.385,-0.37,-0.375,-0.37,-0.38,-0.39,-0.38,-0.365,-0.36,-0.355,-0.375,-0.375,4
-0.225,-0.235,-0.255,-0.225,-0.225,-0.225,-0.22,-0.225,-0.235,-0.23,-0.22,-0.215,-0.225,-0.24,-0.235,-0.235,-0.225,-0.215,-0.225,-0.23,4
-0.05,0.045,0.14,0.205,0.25,0.32,0.43,0.52,0.625,0.745,0.855,0.93,0.93,0.845,0.7,0.485,0.255,0.03,-0.15,-0.33,0
-0.05,-0.05,-0.035,-0.04,-0.03,-0.015,-0.02,-0.035,-0.025,-0.02,0.0,0.005,0.005,-0.015,-0.005,0.005,0.01,0.02,0.01,0.005,2
-0.21,-0.225,-0.24,-0.235,-0.235,-0.225,-0.22,-0.23,-0.245,-0.25,-0.24,-0.235,-0.24,-0.245,-0.255,-0.26,-0.265,-0.255,-0.255,-0.255,1
-0.505,-0.515,-0.525,-0.535,-0.525,-0.515,-0.51,-0.51,-0.505,-0.48,-0.475,-0.49,-0.47,-0.46,-0.455,-0.455,-0.47,-0.49,-0.485,-0.49,0
-0.205,-0.19,-0.185,-0.18,-0.185,-0.18,-0.215,-0.19,-0.19,-0.18,-0.185,-0.2,-0.21,-0.2,-0.2,-0.185,-0.19,-0.2,-0.205,-0.195,4
-0.215,-0.21,-0.22,-0.21,-0.195,-0.17,-0.16,-0.155,-0.155,-0.155,-0.145,-0.14,-0.13,-0.14,-0.14,-0.145,-0.14,-0.12,-0.115,-0.125,2
-0.365,-0.365,-0.36,-0.385,-0.385,-0.385,-0.38,-0.37,-0.365,-0.365,-0.38,-0.385,-0.385,-0.38,-0.385,-0.385,-0.385,-0.39,-0.385,-0.37,1
0.105,0.075,0.035,0.03,0.03,0.05,0.03,0.025,0.01,0.005,0.015,0.0,-0.03,-0.06,-0.065,-0.09,-0.115,-0.16,-0.21,-0.26,3
0.005,0.005,0.015,0.015,0.005,0.015,0.04,0.025,0.025,0.01,0.02,0.04,0.045,0.055,0.055,0.045,0.045,0.06,0.07,0.07,2
-0.145,-0.155,-0.155,-0.14,-0.145,-0.16,-0.155,-0.17,-0.165,-0.16,-0.16,-0.18,-0.185,-0.195,-0.18,-0.175,-0.18,-0.175,-0.19,-0.19,1
0.2,0.65,0.76,0.41,0.05,-0.11,-0.075,-0.03,-0.045,-0.09,-0.095,-0.1,-0.09,-0.085,-0.095,-0.115,-0.115,-0.135,-0.125,-0.135,1
0.005,0.0,0.025,0.03,0.03,0.03,0.015,0.025,0.035,0.045,0.045,0.055,0.035,0.02,0.035,0.05,0.045,0.035,0.025,0.035,2
-0.285,-0.3,-0.31,-0.305,-0.31,-0.305,-0.325,-0.335,-0.35,-0.35,-0.335,-0.335,-0.35,-0.36,-0.38,-0.38,-0.375,-0.37,-0.385,-0.395,1
-0.2,-0.185,-0.185,-0.19,-0.205,-0.215,-0.205,-0.19,-0.175,-0.18,-0.195,-0.19,-0.205,-0.205,-0.195,-0.205,-0.2,-0.215,-0.215,-0.2,1
-0.3,-0.29,-0.295,-0.28,-0.29,-0.305,-0.305,-0.3,-0.285,-0.29,-0.295,-0.31,-0.295,-0.285,-0.285,-0.275,-0.28,-0.28,-0.24,-0.19,4
-0.28,-0.28,-0.3,-0.305,-0.3,-0.295,-0.29,-0.295,-0.295,-0.315,-0.315,-0.315,-0.3,-0.295,-0.305,-0.31,-0.31,-0.3,-0.295,-0.305,1
-0.705,-0.645,-0.58,-0.54,-0.495,-0.46,-0.41,-0.375,-0.34,-0.32,-0.3,-0.3,-0.3,-0.275,-0.25,-0.245,-0.24,-0.235,-0.23,-0.205,2
-0.05,-0.04,-0.03,-0.02,-0.02,-0.03,-0.04,-0.02,-0.01,0.0,-0.005,0.01,0.005,0.01,0.005,0.01,0.0,-0.005,-0.015,0.005,2
-0.215,-0.215,-0.195,-0.195,-0.205,-0.21,-0.205,-0.195,-0.195,-0.19,-0.205,-0.2,-0.18,-0.175,-0.17,-0.18,-0.18,-0.195,-0.165,-0.16,2
0.04,0.03,0.03,0.04,0.035,0.03,-0.005,-0.025,-0.055,-0.085,-0.12,-0.18,-0.2,-0.235,-0.275,-0.285,-0.29,-0.31,-0.33,-0.36,3
-0.245,-0.24,-0.24,-0.235,-0.235,-0.24,-0.25,-0.24,-0.23,-0.215,-0.2,-0.18,-0.13,-0.005,0.28,0.74,0.99,0.715,0.27,0.03,2
-0.14,-0.12,-0.09,-0.03,0.155,0.605,0.91,0.69,0.275,0.075,0.075,0.12,0.12,0.085,0.075,0.07,0.08,0.07,0.075,0.075,1
-0.02,-0.01,0.0,-0.005,0.01,0.005,0.01,0.005,0.01,0.0,-0.005,-0.015,0.005,0.0,0.005,-0.005,-0.02,-0.03,-0.02,-0.015,1
-0.31,-0.3,-0.28,-0.26,-0.245,-0.235,-0.24,-0.235,-0.225,-0.21,-0.195,-0.19,-0.195,-0.18,-0.185,-0.18,-0.16,-0.16,-0.175,-0.19,2
0.035,0.03,0.03,0.05,0.03,0.025,0.01,0.005,0.015,0.0,-0.03,-0.06,-0.065,-0.09,-0.115,-0.16,-0.21,-0.26,-0.3,-0.35,3
-0.145,-0.16,-0.145,-0.14,-0.15,-0.17,-0.18,-0.19,-0.195,-0.185,-0.19,-0.21,-0.225,-0.24,-0.235,-0.235,-0.225,-0.22,-0.23,-0.245,1
0.085,0.08,0.07,0.07,0.075,0.085,0.08,0.095,0.08,0.07,0.07,0.07,0.085,0.08,0.065,0.045,0.05,0.055,0.065,0.05,1
-0.24,-0.25,-0.26,-0.265,-0.25,-0.235,-0.225,-0.235,-0.24,-0.23,-0.235,-0.235,-0.235,-0.23,-0.215,-0.195,-0.205,-0.225,-0.225,-0.235,2
0.04,0.045,0.055,0.055,0.045,0.045,0.06,0.07,0.07,0.065,0.065,0.07,0.085,0.09,0.08,0.085,0.09,0.085,0.095,0.12,2
-0.395,-0.385,-0.38,-0.38,-0.37,-0.39,-0.39,-0.385,-0.37,-0.37,-0.37,-0.37,-0.38,-0.36,-0.365,-0.36,-0.36,-0.365,-0.35,-0.34,2
-0.35,-0.34,-0.325,-0.325,-0.325,-0.35,-0.36,-0.36,-0.345,-0.345,-0.34,-0.355,-0.36,-0.36,-0.345,-0.34,-0.35,-0.345,-0.355,-0.35,1
-0.44,-0.42,-0.43,-0.46,-0.475,-0.47,-0.47,-0.465,-0.47,-0.48,-0.475,-0.47,-0.45,-0.43,-0.42,-0.415,-0.415,-0.43,-0.435,-0.46,2
0.01,0.02,0.035,0.04,0.045,0.035,0.015,0.03,0.055,0.065,0.055,0.04,0.055,0.055,0.075,0.07,0.065,0.06,0.05,0.06,4
-0.35,-0.35,-0.34,-0.325,-0.325,-0.325,-0.35,-0.36,-0.36,-0.345,-0.345,-0.34,-0.355,-0.36,-0.36,-0.345,-0.34,-0.35,-0.345,-0.355,1
-0.245,-0.255,-0.275,-0.265,-0.27,-0.28,-0.275,-0.275,-0.285,-0.32,-0.36,-0.36,-0.36,-0.36,-0.355,-0.355,-0.365,-0.375,-0.37,-0.375,3
-0.205,-0.205,-0.205,-0.23,-0.22,-0.195,-0.18,-0.185,-0.2,-0.205,-0.205,-0.185,-0.19,-0.19,-0.19,-0.205,-0.215,-0.195,-0.18,-0.185,4
-0.09,-0.095,-0.095,-0.085,-0.07,-0.07,-0.075,-0.065,-0.065,-0.05,-0.04,-0.035,-0.045,-0.055,-0.055,-0.04,-0.03,-0.03,-0.04,-0.03,2
-0.36,-0.355,-0.355,-0.365,-0.375,-0.37,-0.375,-0.39,-0.385,-0.4,-0.39,-0.38,-0.36,-0.335,-0.33,-0.345,-0.38,-0.42,-0.43,-0.43,3
-0.225,-0.225,-0.215,-0.22,-0.225,-0.24,-0.25,-0.245,-0.235,-0.24,-0.25,-0.255,-0.26,-0.27,-0.26,-0.25,-0.255,-0.265,-0.27,-0.27,1
-0.095,-0.08,-0.085,-0.085,-0.1,-0.085,-0.07,-0.06,-0.05,-0.07,-0.075,-0.07,-0.06,-0.055,-0.04,-0.035,-0.045,-0.045,-0.025,-0.025,2
-0.125,-0.125,-0.135,-0.155,-0.155,-0.15,-0.15,-0.17,-0.17,-0.18,-0.18,-0.18,-0.165,-0.18,-0.2,-0.205,-0.195,-0.185,-0.18,-0.2,1
-0.06,-0.06,-0.07,-0.08,-0.095,-0.105,-0.105,-0.095,-0.11,-0.11,-0.12,-0.125,-0.125,-0.12,-0.13,-0.135,-0.15,-0.16,-0.155,-0.14,1
-0.24,-0.255,-0.255,-0.245,-0.24,-0.235,-0.24,-0.245,-0.23,-0.205,-0.17,-0.165,-0.16,-0.155,-0.155,-0.13,-0.115,-0.11,-0.11,-0.11,2
-0.25,-0.25,-0.25,-0.25,-0.265,-0.25,-0.255,-0.235,-0.245,-0.265,-0.265,-0.265,-0.255,-0.25,-0.265,-0.27,-0.265,-0.255,-0.245,-0.235,1
-0.23,-0.24,-0.255,-0.255,-0.24,-0.24,-0.235,-0.25,-0.265,-0.255,-0.26,-0.245,-0.25,-0.26,-0.27,-0.26,-0.25,-0.25,-0.26,-0.26,1
-0.56,-0.51,-0.47,-0.44,-0.415,-0.37,-0.35,-0.345,-0.34,-0.34,-0.315,-0.3,-0.29,-0.295,-0.305,-0.305,-0.295,-0.28,-0.265,-0.265,2
-0.07,-0.05,-0.04,-0.04,-0.035,-0.035,-0.04,-0.03,-0.015,-0.015,-0.02,-0.03,-0.025,-0.015,0.005,0.005,0.015,0.015,0.005,0.015,2
0.035,0.035,0.025,0.01,0.025,0.03,0.045,0.05,0.035,0.035,0.05,0.05,0.055,0.045,0.055,0.055,0.065,0.08,0.08,0.095,2
-0.695,-0.625,-0.59,-0.56,-0.49,-0.45,-0.41,-0.39,-0.355,-0.33,-0.3,-0.295,-0.275,-0.285,-0.29,-0.29,-0.24,-0.22,-0.22,-0.235,2
-0.135,-0.15,-0.15,-0.125,-0.105,-0.1,-0.105,-0.11,-0.115,-0.12,-0.12,-0.125,-0.14,-0.14,-0.14,-0.13,-0.135,-0.11,-0.1,-0.085,3
0.19,0.205,0.225,0.225,0.23,0.23,0.225,0.25,0.255,0.225,0.215,0.185,0.165,0.16,0.16,0.145,0.135,0.12,0.105,0.09,0
-0.04,-0.03,-0.02,-0.02,-0.03,-0.04,-0.02,-0.01,0.0,-0.005,0.01,0.005,0.01,0.005,0.01,0.0,-0.005,-0.015,0.005,0.0,2
-0.075,-0.065,-0.07,-0.08,-0.09,-0.085,-0.06,-0.04,-0.04,-0.045,-0.05,-0.045,-0.035,-0.02,-0.03,-0.025,-0.02,-0.035,-0.015,-0.005,2
-0.405,-0.43,-0.45,-0.475,-0.47,-0.465,-0.455,-0.445,-0.44,-0.405,-0.395,-0.395,-0.41,-0.43,-0.455,-0.445,-0.42,-0.38,-0.385,-0.41,2
-0.19,-0.195,-0.18,-0.185,-0.18,-0.16,-0.16,-0.175,-0.19,-0.185,-0.18,-0.165,-0.16,-0.16,-0.175,-0.165,-0.165,-0.165,-0.175,-0.18,4
-0.225,-0.23,-0.245,-0.24,-0.24,-0.23,-0.245,-0.24,-0.25,-0.235,-0.245,-0.25,-0.26,-0.26,-0.26,-0.255,-0.26,-0.255,-0.27,-0.26,1
-0.095,-0.23,-0.3,-0.34,-0.36,-0.34,-0.32,-0.305,-0.31,-0.315,-0.31,-0.3,-0.285,-0.285,-0.3,-0.31,-0.305,-0.31,-0.305,-0.325,0
-0.095,-0.125,-0.145,-0.155,-0.145,-0.12,-0.135,-0.145,-0.16,-0.17,-0.16,-0.155,-0.16,-0.165,-0.185,-0.195,-0.18,-0.17,-0.175,-0.18,1
-0.155,-0.16,-0.185,-0.205,-0.2,-0.205,-0.21,-0.205,-0.23,-0.235,-0.24,-0.225,-0.23,-0.25,-0.255,-0.265,-0.26,-0.255,-0.255,-0.265,1
-0.35,-0.345,-0.355,-0.35,-0.35,-0.335,-0.35,-0.355,-0.365,-0.35,-0.34,-0.345,-0.35,-0.345,-0.35,-0.34,-0.335,-0.335,-0.335,-0.33,2
-0.22,-0.215,-0.23,-0.225,-0.22,-0.21,-0.215,-0.225,-0.235,-0.21,-0.22,-0.225,-0.23,-0.24,-0.24,-0.235,-0.23,-0.23,-0.225,-0.235,1
0.035,0.025,0.035,0.05,0.055,0.065,0.055,0.045,0.025,0.025,0.025,0.02,0.0,0.005,-0.015,-0.01,-0.005,-0.035,-0.045,-0.055,3
-0.23,-0.22,-0.22,-0.235,-0.24,-0.245,-0.25,-0.24,-0.24,-0.245,-0.26,-0.25,-0.245,-0.24,-0.24,-0.265,-0.265,-0.275,-0.255,-0.25,1
-0.38,-0.365,-0.365,-0.35,-0.345,-0.32,-0.31,-0.31,-0.3,-0.28,-0.26,-0.245,-0.235,-0.24,-0.235,-0.225,-0.21,-0.195,-0.19,-0.195,2
-0.12,-0.125,-0.15,-0.17,-0.16,-0.17,-0.18,-0.19,-0.205,-0.205,-0.21,-0.205,-0.205,-0.225,-0.225,-0.23,-0.245,-0.24,-0.24,-0.23,3
-0.525,-0.525,-0.51,-0.47,-0.455,-0.485,-0.52,-0.575,-0.6,-0.6,-0.57,-0.545,-0.535,-0.52,-0.52,-0.505,-0.495,-0.505,-0.505,-0.505,0
-0.21,-0.22,-0.22,-0.21,-0.205,-0.215,-0.205,-0.225,-0.215,-0.205,-0.2,-0.205,-0.21,-0.215,-0.22,-0.2,-0.2,-0.21,-0.215,-0.225,4
0.99,0.715,0.27,0.03,0.01,0.075,0.065,0.035,-0.005,-0.015,0.0,0.01,0.015,0.005,-0.005,-0.015,-0.01,0.005,-0.005,-0.015,1
-0.155,-0.18,-0.185,-0.18,-0.175,-0.135,-0.11,-0.11,-0.125,-0.12,-0.125,-0.145,-0.135,-0.15,-0.15,-0.125,-0.105,-0.1,-0.105,-0.11,2
-0.205,-0.21,-0.215,-0.215,-0.21,-0.22,-0.225,-0.225,-0.225,-0.225,-0.205,-0.21,-0.215,-0.225,-0.24,-0.23,-0.195,-0.21,-0.23,-0.245,3
-0.18,-0.175,-0.19,-0.19,-0.195,-0.18,-0.2,-0.195,-0.19,-0.205,-0.19,-0.17,-0.175,-0.18,-0.195,-0.2,-0.195,-0.18,-0.18,-0.185,4
-0.205,-0.21,-0.205,-0.23,-0.235,-0.24,-0.225,-0.23,-0.25,-0.255,-0.265,-0.26,-0.255,-0.255,-0.265,-0.275,-0.275,-0.28,-0.27,-0.27,1
0.055,0.065,0.08,0.08,0.095,0.08,0.09,0.1,0.1,0.105,0.105,0.095,0.1,0.115,0.13,0.12,0.115,0.11,0.11,0.12,2
-0.34,-0.335,-0.325,-0.31,-0.315,-0.345,-0.375,-0.37,-0.355,-0.345,-0.35,-0.365,-0.365,-0.365,-0.33,-0.325,-0.335,-0.34,-0.36,-0.35,1
-0.315,-0.345,-0.4,-0.47,-0.56,-0.64,-0.7,-0.75,-0.785,-0.85,-0.9,-0.945,-0.97,-0.98,-0.945,-0.93,-0.96,-1.02,-1.07,-1.085,3
-0.19,-0.19,-0.18,-0.19,-0.205,-0.2,-0.2,-0.2,-0.2,-0.21,-0.22,-0.22,-0.21,-0.205,-0.205,-0.22,-0.23,-0.23,-0.23,-0.22,1
-0.35,-0.34,-0.33,-0.335,-0.33,-0.325,-0.305,-0.29,-0.27,-0.245,-0.24,-0.235,-0.23,-0.225,-0.21,-0.21,-0.185,-0.195,-0.19,-0.175,2
-0.815,-0.875,-0.905,-0.925,-0.935,-0.955,-0.955,-0.975,-0.965,-0.945,-0.94,-0.925,-0.915,-0.885,-0.835,-0.78,-0.74,-0.695,-0.625,-0.59,2
-0.09,-0.085,-0.06,-0.04,-0.04,-0.045,-0.05,-0.045,-0.035,-0.02,-0.03,-0.025,-0.02,-0.035,-0.015,-0.005,-0.005,-0.015,-0.005,-0.01,2
-0.185,-0.2,-0.19,-0.185,-0.185,-0.175,-0.19,-0.2,-0.21,-0.19,-0.185,-0.19,-0.19,-0.195,-0.2,-0.185,-0.18,-0.19,-0.195,-0.21,4
-0.17,-0.175,-0.18,-0.195,-0.19,-0.19,-0.18,-0.185,-0.19,-0.2,-0.195,-0.185,-0.18,-0.185,-0.185,-0.205,-0.2,-0.185,-0.175,-0.18,4
0.07,0.065,0.065,0.075,0.065,0.055,0.03,0.025,0.03,0.04,0.02,0.005,-0.015,-0.02,-0.01,-0.005,-0.015,-0.035,-0.05,-0.055,1
-0.03,-0.015,-0.015,-0.02,-0.03,-0.025,-0.015,0.005,0.005,0.015,0.015,0.005,0.015,0.04,0.025,0.025,0.01,0.02,0.04,0.045,2
0.07,0.065,0.05,0.045,0.035,0.025,0.035,0.025,0.005,-0.005,-0.015,-0.015,-0.025,-0.025,-0.04,-0.055,-0.065,-0.07,-0.065,-0.085,3
-0.14,-0.14,-0.145,-0.13,-0.11,-0.095,-0.11,-0.105,-0.115,-0.105,-0.095,-0.085,-0.09,-0.08,-0.09,-0.085,-0.075,-0.065,-0.06,-0.08,2
-0.185,-0.175,-0.185,-0.185,-0.2,-0.19,-0.185,-0.185,-0.205,-0.21,-0.22,-0.2,-0.195,-0.19,-0.2,-0.21,-0.21,-0.205,-0.195,-0.205,1
-0.51,-0.515,-0.515,-0.515,-0.52,-0.52,-0.525,-0.525,-0.51,-0.47,-0.455,-0.485,-0.52,-0.575,-0.6,-0.6,-0.57,-0.545,-0.535,-0.52,0
-0.005,-0.015,-0.035,-0.05,-0.055,-0.04,-0.035,-0.035,-0.06,-0.07,-0.07,-0.07,-0.055,-0.065,-0.075,-0.08,-0.09,-0.08,-0.075,-0.08,1
-0.2,-0.18,-0.13,-0.005,0.28,0.74,0.99,0.715,0.27,0.03,0.01,0.075,0.065,0.035,-0.005,-0.015,0.0,0.01,0.015,0.005,0
-0.145,-0.15,-0.145,-0.135,-0.14,-0.13,-0.14,-0.165,-0.185,-0.195,-0.19,-0.18,-0.185,-0.2,-0.215,-0.205,-0.2,-0.195,-0.195,-0.2,1
-0.21,-0.265,-0.32,-0.385,-0.485,-0.6,-0.695,-0.755,-0.785,-0.85,-0.915,-0.99,-1.05,-1.075,-1.065,-1.07,-1.075,-1.105,-1.1,-1.07,3
-0.25,-0.235,-0.23,-0.24,-0.24,-0.255,-0.25,-0.24,-0.23,-0.24,-0.25,-0.26,-0.255,-0.245,-0.24,-0.235,-0.25,-0.255,-0.255,-0.255,4
-0.1,-0.11,-0.11,-0.115,-0.13,-0.13,-0.12,-0.115,-0.12,-0.125,-0.12,-0.12,-0.115,-0.12,-0.13,-0.13,-0.145,-0.14,-0.125,-0.135,1
-0.015,-0.01,0.005,-0.005,-0.015,-0.06,-0.09,-0.125,-0.15,-0.18,-0.245,-0.32,-0.43,-0.52,-0.575,-0.63,-0.685,-0.755,-0.82,-0.87,3
-0.16,-0.12,-0.04,0.14,0.54,0.91,0.82,0.435,0.145,0.07,0.09,0.085,0.065,0.045,0.04,0.03,0.005,0.005,0.0,-0.005,3
-0.19,-0.215,-0.2,-0.2,-0.19,-0.19,-0.21,-0.215,-0.21,-0.205,-0.195,-0.205,-0.22,-0.225,-0.22,-0.225,-0.215,-0.22,-0.23,-0.24,1
0.075,0.065,0.05,0.035,-0.01,-0.02,-0.05,-0.095,-0.145,-0.195,-0.245,-0.315,-0.39,-0.48,-0.555,-0.615,-0.675,-0.73,-0.78,-0.815,3
-0.23,-0.225,-0.22,-0.225,-0.23,-0.255,-0.245,-0.24,-0.24,-0.24,-0.25,-0.26,-0.26,-0.255,-0.25,-0.255,-0.255,-0.27,-0.275,-0.265,1
-0.2,-0.21,-0.19,-0.19,-0.19,-0.205,-0.21,-0.215,-0.215,-0.21,-0.22,-0.225,-0.225,-0.225,-0.225,-0.205,-0.21,-0.215,-0.225,-0.24,3
-0.395,-0.38,-0.375,-0.37,-0.37,-0.365,-0.36,-0.38,-0.385,-0.39,-0.4,-0.395,-0.38,-0.365,-0.355,-0.35,-0.37,-0.355,-0.325,-0.295,0
-0.12,-0.125,-0.14,-0.14,-0.14,-0.13,-0.135,-0.11,-0.1,-0.085,-0.085,-0.095,-0.11,-0.12,-0.145,-0.165,-0.175,-0.175,-0.18,-0.195,3
-0.02,-0.065,-0.025,-0.03,-0.05,-0.085,-0.105,-0.12,-0.135,-0.125,-0.13,-0.14,-0.155,-0.195,-0.205,-0.195,-0.21,-0.22,-0.245,-0.295,3
-0.145,-0.04,0.235,0.71,0.875,0.545,0.155,0.005,0.045,0.07,0.065,0.02,0.03,0.045,0.06,0.075,0.1,0.14,0.23,0.315,0
-0.26,-0.24,-0.24,-0.23,-0.245,-0.235,-0.235,-0.225,-0.22,-0.22,-0.22,-0.22,-0.23,-0.215,-0.21,-0.215,-0.21,-0.22,-0.225,-0.215,2
-0.25,-0.245,-0.24,-0.235,-0.23,-0.205,-0.2,-0.2,-0.21,-0.215,-0.2,-0.195,-0.18,-0.17,-0.16,-0.155,-0.135,-0.135,-0.115,-0.1,2
-0.245,-0.25,-0.24,-0.235,-0.24,-0.245,-0.255,-0.26,-0.265,-0.255,-0.255,-0.255,-0.275,-0.275,-0.275,-0.26,-0.27,-0.28,-0.285,-0.29,1
-0.015,-0.01,-0.005,0.0,-0.01,-0.01,0.0,0.015,0.0,-0.005,-0.02,-0.01,-0.015,-0.01,-0.005,-0.02,-0.035,-0.04,-0.035,-0.035,1
-0.3,-0.31,-0.32,-0.325,-0.32,-0.32,-0.32,-0.32,-0.33,-0.35,-0.325,-0.32,-0.335,-0.33,-0.345,-0.355,-0.355,-0.345,-0.345,-0.345,1
-0.965,-1.025,-1.06,-1.065,-1.07,-1.08,-1.095,-1.095,-1.08,-1.075,-1.07,-1.06,-1.045,-1.035,-1.0,-0.965,-0.92,-0.88,-0.82,-0.77,2
-0.13,-0.11,-0.095,-0.11,-0.105,-0.115,-0.105,-0.095,-0.085,-0.09,-0.08,-0.09,-0.085,-0.075,-0.065,-0.06,-0.08,-0.075,-0.075,-0.065,2
-0.52,-0.52,-0.505,-0.495,-0.505,-0.505,-0.505,-0.515,-0.52,-0.505,-0.47,-0.485,-0.515,-0.545,-0.56,-0.55,-0.54,-0.52,-0.5,-0.5,1
-0.15,-0.145,-0.135,-0.14,-0.13,-0.14,-0.165,-0.185,-0.195,-0.19,-0.18,-0.185,-0.2,-0.215,-0.205,-0.2,-0.195,-0.195,-0.2,-0.205,1
-0.11,-0.145,-0.16,-0.15,-0.14,-0.13,-0.135,-0.145,-0.17,-0.175,-0.185,-0.195,-0.205,-0.215,-0.25,-0.27,-0.31,-0.34,-0.385,-0.425,3
-0.045,-0.04,-0.045,-0.055,-0.05,-0.04,-0.03,-0.025,-0.04,-0.045,-0.045,-0.025,-0.01,-0.005,-0.01,-0.03,-0.015,-0.015,-0.01,-0.005,4
0.09,0.085,0.065,0.045,0.04,0.03,0.005,0.005,0.0,-0.005,-0.015,-0.04,-0.045,-0.055,-0.06,-0.075,-0.095,-0.13,-0.185,-0.225,3
-0.255,-0.265,-0.25,-0.245,-0.245,-0.255,-0.265,-0.265,-0.235,-0.225,-0.235,-0.24,-0.24,-0.245,-0.245,-0.22,-0.215,-0.225,-0.235,-0.255,4
-0.56,-0.54,-0.5,-0.48,-0.465,-0.465,-0.455,-0.445,-0.405,-0.39,-0.38,-0.37,-0.37,-0.375,-0.38,-0.365,-0.375,-0.38,-0.39,-0.39,2
-0.375,-0.375,-0.37,-0.37,-0.355,-0.355,-0.36,-0.355,-0.36,-0.34,-0.33,-0.325,-0.32,-0.295,-0.25,-0.155,0.11,0.55,0.765,0.485,2
0.025,0.035,0.025,0.005,-0.005,-0.015,-0.015,-0.025,-0.025,-0.04,-0.055,-0.065,-0.07,-0.065,-0.085,-0.09,-0.11,-0.12,-0.115,-0.12,3
-0.105,-0.105,-0.115,-0.105,-0.13,-0.145,-0.16,-0.145,-0.14,-0.15,-0.17,-0.18,-0.19,-0.195,-0.185,-0.19,-0.21,-0.225,-0.24,-0.235,1
-0.515,-0.545,-0.56,-0.55,-0.54,-0.52,-0.5,-0.5,-0.515,-0.51,-0.5,-0.485,-0.48,-0.515,-0.535,-0.515,-0.505,-0.495,-0.485,-0.49,2
-0.07,-0.08,-0.095,-0.105,-0.105,-0.095,-0.11,-0.11,-0.12,-0.125,-0.125,-0.12,-0.13,-0.135,-0.15,-0.16,-0.155,-0.14,-0.155,-0.15,1
-0.23,-0.215,-0.195,-0.18,-0.175,-0.165,-0.135,-0.12,-0.105,-0.09,-0.115,-0.12,-0.125,-0.13,-0.125,-0.12,-0.13,-0.145,-0.145,-0.13,2
0.03,-0.15,-0.33,-0.47,-0.585,-0.655,-0.66,-0.61,-0.58,-0.565,-0.565,-0.57,-0.575,-0.565,-0.57,-0.585,-0.585,-0.58,-0.545,-0.52,3
-0.25,-0.255,-0.265,-0.245,-0.23,-0.21,-0.2,-0.195,-0.215,-0.24,-0.23,-0.235,-0.205,-0.205,-0.2,-0.19,-0.185,-0.175,-0.175,-0.2,2
-0.225,-0.235,-0.235,-0.245,-0.24,-0.255,-0.27,-0.27,-0.275,-0.26,-0.245,-0.23,-0.22,-0.215,-0.22,-0.2,-0.195,-0.185,-0.18,-0.18,2
-0.235,-0.24,-0.235,-0.225,-0.21,-0.195,-0.19,-0.195,-0.18,-0.185,-0.18,-0.16,-0.16,-0.175,-0.19,-0.185,-0.18,-0.165,-0.16,-0.16,2
-0.175,-0.19,-0.2,-0.21,-0.19,-0.185,-0.19,-0.19,-0.195,-0.2,-0.185,-0.18,-0.19,-0.195,-0.21,-0.21,-0.19,-0.18,-0.185,-0.185,4
-0.465,-0.47,-0.48,-0.475,-0.47,-0.455,-0.45,-0.445,-0.45,-0.445,-0.455,-0.435,-0.425,-0.405,-0.415,-0.42,-0.41,-0.395,-0.385,-0.38,2
-0.47,-0.47,-0.47,-0.47,-0.465,-0.445,-0.43,-0.405,-0.41,-0.395,-0.37,-0.36,-0.345,-0.33,-0.32,-0.32,-0.305,-0.29,-0.29,-0.26,0
-0.51,-0.47,-0.455,-0.485,-0.52,-0.575,-0.6,-0.6,-0.57,-0.545,-0.535,-0.52,-0.52,-0.505,-0.495,-0.505,-0.505,-0.505,-0.515,-0.52,2
-0.315,-0.265,-0.235,-0.125,0.14,0.595,0.875,0.655,0.225,-0.02,-0.065,-0.025,-0.03,-0.05,-0.085,-0.105,-0.12,-0.135,-0.125,-0.13,1
-0.26,-0.255,-0.27,-0.26,-0.27,-0.255,-0.275,-0.28,-0.285,-0.28,-0.28,-0.27,-0.275,-0.28,-0.285,-0.295,-0.285,-0.28,-0.28,-0.285,1
-0.01,-0.02,-0.025,-0.05,-0.035,-0.03,-0.03,-0.04,-0.055,-0.07,-0.08,-0.085,-0.06,-0.075,-0.08,-0.105,-0.105,-0.115,-0.105,-0.13,1
-0.25,-0.265,-0.275,-0.26,-0.24,-0.25,-0.26,-0.27,-0.285,-0.27,-0.25,-0.245,-0.235,-0.245,-0.24,-0.24,-0.235,-0.235,-0.24,-0.25,2
-0.325,-0.295,-0.26,-0.155,0.06,0.495,0.825,0.675,0.225,-0.04,-0.115,-0.075,-0.07,-0.09,-0.11,-0.145,-0.16,-0.15,-0.14,-0.13,1
-0.36,-0.36,-0.35,-0.33,-0.325,-0.32,-0.325,-0.31,-0.295,-0.28,-0.275,-0.285,-0.265,-0.265,-0.255,-0.24,-0.23,-0.25,-0.25,-0.245,2
-0.27,-0.275,-0.275,-0.255,-0.24,-0.24,-0.23,-0.25,-0.25,-0.26,-0.24,-0.245,-0.245,-0.245,-0.27,-0.265,-0.26,-0.26,-0.265,-0.25,1
-0.015,-0.06,-0.09,-0.125,-0.15,-0.18,-0.245,-0.32,-0.43,-0.52,-0.575,-0.63,-0.685,-0.755,-0.82,-0.87,-0.885,-0.92,-0.935,-0.97,3
-0.275,-0.24,-0.23,-0.23,-0.25,-0.265,-0.24,-0.23,-0.22,-0.22,-0.21,-0.19,-0.145,-0.04,0.235,0.71,0.875,0.545,0.155,0.005,2
0.03,0.025,0.03,0.05,0.055,0.05,0.04,0.04,0.05,0.055,0.065,0.065,0.055,0.055,0.065,0.07,0.085,0.08,0.07,0.07,2
-0.465,-0.455,-0.445,-0.405,-0.39,-0.38,-0.37,-0.37,-0.375,-0.38,-0.365,-0.375,-0.38,-0.39,-0.39,-0.35,-0.33,-0.31,-0.31,-0.32,2
0.05,0.015,-0.005,-0.005,-0.005,-0.005,-0.005,-0.025,-0.03,-0.03,-0.025,-0.035,-0.045,-0.07,-0.07,-0.1,-0.115,-0.16,-0.2,-0.24,3
-0.545,-0.51,-0.515,-0.55,-0.6,-0.6,-0.565,-0.555,-0.56,-0.575,-0.59,-0.575,-0.565,-0.56,-0.565,-0.59,-0.595,-0.575,-0.54,-0.54,4
-0.95,-1.005,-1.06,-1.055,-1.07,-1.07,-1.07,-1.075,-1.08,-1.08,-1.07,-1.05,-1.04,-1.015,-0.985,-0.945,-0.895,-0.83,-0.77,-0.73,2
-0.205,-0.195,-0.205,-0.21,-0.205,-0.2,-0.205,-0.17,-0.155,-0.115,-0.03,0.06,0.155,0.25,0.33,0.415,0.55,0.73,0.905,1.01,2
-0.06,-0.05,-0.07,-0.07,-0.055,-0.05,-0.05,-0.04,-0.045,-0.035,-0.02,-0.02,-0.025,-0.02,-0.025,-0.015,-0.015,-0.01,-0.005,-0.01,2
-0.325,-0.325,-0.32,-0.31,-0.29,-0.3,-0.3,-0.325,-0.325,-0.315,-0.315,-0.315,-0.32,-0.335,-0.345,-0.335,-0.335,-0.33,-0.345,-0.35,1
-0.245,-0.245,-0.25,-0.25,-0.23,-0.215,-0.215,-0.215,-0.21,-0.205,-0.2,-0.195,-0.205,-0.23,-0.235,-0.255,-0.265,-0.26,-0.26,-0.28,2
-0.61,-0.6,-0.59,-0.565,-0.54,-0.505,-0.515,-0.525,-0.535,-0.525,-0.515,-0.51,-0.51,-0.505,-0.48,-0.475,-0.49,-0.47,-0.46,-0.455,2
0.04,0.03,0.005,0.005,0.0,-0.005,-0.015,-0.04,-0.045,-0.055,-0.06,-0.075,-0.095,-0.13,-0.185,-0.225,-0.26,-0.285,-0.33,-0.38,3
-0.755,-0.785,-0.85,-0.915,-0.99,-1.05,-1.075,-1.065,-1.07,-1.075,-1.105,-1.1,-1.07,-1.045,-1.02,-1.0,-0.99,-0.97,-0.93,-0.87,0
-0.045,-0.035,-0.05,-0.045,-0.03,-0.02,-0.01,-0.015,-0.03,-0.025,-0.015,0.01,0.015,0.01,0.01,0.01,0.02,0.035,0.04,0.045,2
-0.23,-0.25,-0.265,-0.255,-0.245,-0.245,-0.245,-0.255,-0.265,-0.26,-0.245,-0.25,-0.255,-0.265,-0.28,-0.26,-0.275,-0.255,-0.275,-0.275,1
-0.405,-0.375,-0.35,-0.35,-0.375,-0.37,-0.365,-0.355,-0.36,-0.365,-0.36,-0.36,-0.355,-0.37,-0.375,-0.35,-0.34,-0.29,-0.225,-0.1,2
-0.195,-0.235,-0.28,-0.33,-0.4,-0.475,-0.57,-0.63,-0.685,-0.735,-0.815,-0.875,-0.925,-0.96,-0.98,-1.02,-1.035,-1.04,-1.05,-1.04,3
-0.065,-0.05,-0.04,-0.035,-0.045,-0.055,-0.055,-0.04,-0.03,-0.03,-0.04,-0.03,-0.045,-0.04,-0.03,-0.03,-0.025,-0.035,-0.045,-0.04,4
-0.92,-0.935,-0.97,-0.975,-0.975,-0.975,-0.965,-0.98,-0.975,-0.96,-0.925,-0.885,-0.845,-0.79,-0.745,-0.71,-0.665,-0.6,-0.56,-0.51,2
-0.19,-0.205,-0.215,-0.195,-0.18,-0.185,-0.195,-0.22,-0.225,-0.21,-0.205,-0.19,-0.21,-0.215,-0.225,-0.22,-0.225,-0.235,-0.235,-0.24,3
-0.08,-0.07,-0.08,-0.06,-0.045,-0.035,-0.05,-0.06,-0.055,-0.05,-0.045,-0.045,-0.055,-0.065,-0.075,-0.06,-0.065,-0.065,-0.08,-0.09,1
-0.13,-0.13,-0.145,-0.14,-0.125,-0.135,-0.145,-0.155,-0.15,-0.14,-0.15,-0.16,-0.155,-0.165,-0.17,-0.165,-0.145,-0.16,-0.17,-0.165,1
-0.49,-0.5,-0.515,-0.53,-0.52,-0.535,-0.52,-0.515,-0.53,-0.545,-0.54,-0.53,-0.52,-0.53,-0.53,-0.545,-0.545,-0.525,-0.515,-0.525,4
-0.2,-0.19,-0.185,-0.175,-0.175,-0.2,-0.22,-0.22,-0.2,-0.175,-0.18,-0.2,-0.235,-0.255,-0.26,-0.25,-0.24,-0.235,-0.245,-0.245,1
-0.27,-0.26,-0.255,-0.255,-0.255,-0.24,-0.215,-0.21,-0.21,-0.22,-0.225,-0.21,-0.195,-0.19,-0.185,-0.185,-0.2,-0.18,-0.175,-0.165,2
-0.93,-0.87,-0.815,-0.77,-0.75,-0.715,-0.66,-0.605,-0.545,-0.495,-0.475,-0.46,-0.425,-0.405,-0.38,-0.375,-0.375,-0.355,-0.335,-0.31,2
1.495,1.375,1.16,0.92,0.68,0.475,0.305,0.11,-0.085,-0.28,-0.4,-0.465,-0.47,-0.455,-0.46,-0.46,-0.45,-0.455,-0.435,-0.43,3
-0.005,-0.015,0.005,0.0,0.005,-0.005,-0.02,-0.03,-0.02,-0.015,-0.015,-0.025,-0.05,-0.075,-0.08,-0.11,-0.12,-0.125,-0.15,-0.17,3
0.14,0.205,0.25,0.32,0.43,0.52,0.625,0.745,0.855,0.93,0.93,0.845,0.7,0.485,0.255,0.03,-0.15,-0.33,-0.47,-0.585,3
-0.225,-0.24,-0.235,-0.225,-0.21,-0.205,-0.21,-0.225,-0.21,-0.205,-0.185,-0.18,-0.19,-0.175,-0.15,-0.16,-0.165,-0.145,-0.125,-0.115,0
-0.84,-0.8,-0.745,-0.7,-0.67,-0.645,-0.6,-0.53,-0.48,-0.445,-0.425,-0.415,-0.38,-0.35,-0.335,-0.325,-0.33,-0.33,-0.33,-0.295,2
-0.01,-0.01,0.0,-0.005,-0.01,-0.025,-0.025,-0.015,-0.02,-0.015,-0.035,-0.05,-0.055,-0.065,-0.07,-0.075,-0.075,-0.09,-0.125,-0.105,3
-0.09,-0.115,-0.16,-0.21,-0.26,-0.3,-0.35,-0.42,-0.49,-0.565,-0.625,-0.675,-0.73,-0.785,-0.84,-0.86,-0.895,-0.9,-0.92,-0.915,3
-0.13,-0.125,-0.125,-0.125,-0.14,-0.145,-0.145,-0.13,-0.135,-0.14,-0.15,-0.145,-0.155,-0.14,-0.14,-0.16,-0.18,-0.18,-0.16,-0.155,1
-0.515,-0.525,-0.535,-0.525,-0.515,-0.51,-0.51,-0.505,-0.48,-0.475,-0.49,-0.47,-0.46,-0.455,-0.455,-0.47,-0.49,-0.485,-0.49,-0.48,0
-0.235,-0.235,-0.245,-0.24,-0.255,-0.27,-0.27,-0.275,-0.26,-0.245,-0.23,-0.22,-0.215,-0.22,-0.2,-0.195,-0.185,-0.18,-0.18,-0.18,2
-0.13,-0.125,-0.13,-0.14,-0.15,-0.135,-0.13,-0.115,-0.12,-0.125,-0.135,-0.11,-0.115,-0.1,-0.1,-0.11,-0.12,-0.1,-0.095,-0.08,4
-0.75,-0.72,-0.66,-0.605,-0.55,-0.505,-0.475,-0.47,-0.435,-0.41,-0.395,-0.385,-0.375,-0.375,-0.355,-0.33,-0.295,-0.285,-0.29,-0.29,2
-0.15,-0.14,-0.105,-0.12,-0.155,-0.18,-0.185,-0.18,-0.175,-0.135,-0.11,-0.11,-0.125,-0.12,-0.125,-0.145,-0.135,-0.15,-0.15,-0.125,2
-0.265,-0.265,-0.235,-0.225,-0.235,-0.24,-0.24,-0.245,-0.245,-0.22,-0.215,-0.225,-0.235,-0.255,-0.225,-0.225,-0.225,-0.22,-0.225,-0.235,4
-0.27,-0.275,-0.285,-0.295,-0.285,-0.285,-0.295,-0.295,-0.295,-0.305,-0.295,-0.285,-0.295,-0.3,-0.31,-0.32,-0.305,-0.315,-0.31,-0.32,1
-0.25,-0.265,-0.25,-0.255,-0.235,-0.245,-0.265,-0.265,-0.265,-0.255,-0.25,-0.265,-0.27,-0.265,-0.255,-0.245,-0.235,-0.25,-0.26,-0.27,4
0.09,0.1,0.1,0.105,0.105,0.095,0.1,0.115,0.13,0.12,0.115,0.11,0.11,0.12,0.12,0.11,0.1,0.09,0.085,0.095,1
-0.055,-0.075,-0.08,-0.075,-0.08,-0.065,-0.045,-0.045,-0.05,-0.05,-0.035,-0.04,-0.03,-0.015,-0.02,-0.035,-0.025,-0.02,0.0,0.005,2
-0.11,-0.12,-0.12,-0.105,-0.1,-0.11,-0.11,-0.115,-0.13,-0.13,-0.12,-0.115,-0.12,-0.125,-0.12,-0.12,-0.115,-0.12,-0.13,-0.13,1
-0.085,-0.095,-0.095,-0.085,-0.075,-0.07,-0.08,-0.07,-0.08,-0.06,-0.045,-0.035,-0.05,-0.06,-0.055,-0.05,-0.045,-0.045,-0.055,-0.065,2
-0.135,-0.11,-0.1,-0.095,-0.11,-0.105,-0.105,-0.09,-0.095,-0.085,-0.085,-0.08,-0.08,-0.055,-0.045,-0.04,-0.06,-0.055,-0.05,-0.04,2
-0.535,-0.55,-0.535,-0.54,-0.55,-0.555,-0.56,-0.565,-0.56,-0.57,-0.57,-0.585,-0.585,-0.585,-0.59,-0.585,-0.595,-0.6,-0.61,-0.6,3
-0.36,-0.355,-0.36,-0.34,-0.33,-0.325,-0.32,-0.295,-0.25,-0.155,0.11,0.55,0.765,0.485,0.115,-0.06,-0.065,-0.06,-0.07,-0.1,2
-0.09,-0.125,-0.105,-0.115,-0.125,-0.125,-0.135,-0.155,-0.155,-0.15,-0.15,-0.17,-0.17,-0.18,-0.18,-0.18,-0.165,-0.18,-0.2,-0.205,3
-0.245,-0.24,-0.235,-0.23,-0.225,-0.21,-0.21,-0.185,-0.195,-0.19,-0.175,-0.175,-0.17,-0.185,-0.185,-0.195,-0.175,-0.145,-0.12,-0.12,0
-0.235,-0.23,-0.225,-0.215,-0.235,-0.235,-0.24,-0.245,-0.23,-0.22,-0.235,-0.23,-0.24,-0.23,-0.23,-0.23,-0.25,-0.23,-0.235,-0.225,4
1.52,1.68,1.435,0.995,0.66,0.435,0.265,0.08,-0.095,-0.23,-0.3,-0.34,-0.36,-0.34,-0.32,-0.305,-0.31,-0.315,-0.31,-0.3,3
-0.92,-0.88,-0.82,-0.77,-0.7,-0.625,-0.575,-0.525,-0.49,-0.465,-0.43,-0.4,-0.38,-0.39,-0.39,-0.395,-0.38,-0.355,-0.335,-0.32,2
-0.36,-0.365,-0.36,-0.34,-0.305,-0.295,-0.295,-0.31,-0.29,-0.26,-0.245,-0.26,-0.27,-0.275,-0.265,-0.25,-0.26,-0.26,-0.285,-0.255,2
-0.085,-0.08,-0.095,-0.11,-0.12,-0.125,-0.115,-0.135,-0.135,-0.15,-0.155,-0.15,-0.155,-0.135,-0.155,-0.17,-0.185,-0.165,-0.175,-0.175,3
-0.135,-0.135,-0.15,-0.155,-0.15,-0.155,-0.135,-0.155,-0.17,-0.185,-0.165,-0.175,-0.175,-0.16,-0.185,-0.185,-0.18,-0.16,-0.18,-0.19,1
-0.24,-0.235,-0.235,-0.24,-0.25,-0.24,-0.23,-0.215,-0.2,-0.18,-0.13,-0.005,0.28,0.74,0.99,0.715,0.27,0.03,0.01,0.075,2
-0.775,-0.79,-0.785,-0.795,-0.78,-0.785,-0.805,-0.815,-0.79,-0.785,-0.76,-0.755,-0.755,-0.77,-0.78,-0.775,-0.77,-0.785,-0.795,-0.775,2
-1.035,-1.04,-1.04,-1.015,-0.975,-0.93,-0.89,-0.835,-0.78,-0.72,-0.65,-0.595,-0.54,-0.505,-0.455,-0.42,-0.38,-0.345,-0.335,-0.325,0
-0.25,-0.255,-0.255,-0.25,-0.24,-0.225,-0.235,-0.235,-0.25,-0.24,-0.23,-0.22,-0.225,-0.23,-0.25,-0.24,-0.22,-0.205,-0.21,-0.22,4
-0.58,-0.54,-0.495,-0.46,-0.41,-0.375,-0.34,-0.32,-0.3,-0.3,-0.3,-0.275,-0.25,-0.245,-0.24,-0.235,-0.23,-0.205,-0.2,-0.2,2
-0.165,-0.175,-0.18,-0.19,-0.195,-0.215,-0.23,-0.24,-0.23,-0.215,-0.23,-0.235,-0.26,-0.265,-0.255,-0.25,-0.25,-0.27,-0.28,-0.275,1
-0.165,-0.15,-0.145,-0.175,-0.18,-0.205,-0.2,-0.2,-0.195,-0.195,-0.215,-0.225,-0.225,-0.215,-0.22,-0.225,-0.24,-0.25,-0.245,-0.235,1
-0.225,-0.23,-0.23,-0.23,-0.23,-0.22,-0.22,-0.235,-0.235,-0.24,-0.215,-0.225,-0.215,-0.235,-0.25,-0.245,-0.235,-0.225,-0.22,-0.235,1
-0.24,-0.235,-0.265,-0.265,-0.255,-0.245,-0.255,-0.265,-0.26,-0.27,-0.255,-0.245,-0.255,-0.265,-0.26,-0.275,-0.265,-0.255,-0.26,-0.27,1
0.93,0.845,0.7,0.485,0.255,0.03,-0.15,-0.33,-0.47,-0.585,-0.655,-0.66,-0.61,-0.58,-0.565,-0.565,-0.57,-0.575,-0.565,-0.57,3
0.025,0.03,0.03,0.03,0.015,0.025,0.035,0.045,0.045,0.055,0.035,0.02,0.035,0.05,0.045,0.035,0.025,0.035,0.05,0.055,2
-0.19,-0.19,-0.2,-0.2,-0.195,-0.16,-0.12,-0.04,0.14,0.54,0.91,0.82,0.435,0.145,0.07,0.09,0.085,0.065,0.045,0.04,2
-0.58,-0.665,-0.715,-0.78,-0.83,-0.9,-0.945,-0.99,-1.02,-1.045,-1.065,-1.085,-1.085,-1.07,-1.075,-1.075,-1.08,-1.085,-1.065,-1.045,3
0.08,0.07,0.065,0.065,0.07,0.065,0.05,0.045,0.035,0.025,0.035,0.025,0.005,-0.005,-0.015,-0.015,-0.025,-0.025,-0.04,-0.055,3
-0.56,-0.55,-0.54,-0.52,-0.5,-0.5,-0.515,-0.51,-0.5,-0.485,-0.48,-0.515,-0.535,-0.515,-0.505,-0.495,-0.485,-0.49,-0.49,-0.5,2
-0.22,-0.22,-0.22,-0.23,-0.215,-0.21,-0.215,-0.21,-0.22,-0.225,-0.215,-0.215,-0.195,-0.195,-0.205,-0.21,-0.205,-0.195,-0.195,-0.19,4
-0.255,-0.23,-0.245,-0.23,-0.225,-0.24,-0.235,-0.225,-0.21,-0.205,-0.21,-0.225,-0.21,-0.205,-0.185,-0.18,-0.19,-0.175,-0.15,-0.16,2
-0.29,-0.29,-0.305,-0.285,-0.28,-0.3,-0.31,-0.315,-0.31,-0.31,-0.31,-0.32,-0.32,-0.32,-0.325,-0.31,-0.31,-0.32,-0.33,-0.335,1
-0.39,-0.385,-0.37,-0.375,-0.37,-0.38,-0.39,-0.38,-0.365,-0.36,-0.355,-0.375,-0.375,-0.37,-0.37,-0.355,-0.355,-0.36,-0.355,-0.36,4
-0.06,-0.055,-0.055,-0.05,-0.06,-0.065,-0.055,-0.04,-0.035,-0.04,-0.035,-0.03,-0.02,-0.005,-0.015,0.0,-0.005,-0.01,0.005,-0.005,2
-0.465,-0.455,-0.44,-0.445,-0.435,-0.425,-0.395,-0.39,-0.375,-0.36,-0.345,-0.345,-0.33,-0.31,-0.3,-0.29,-0.295,-0.3,-0.28,-0.27,2
-0.17,-0.18,-0.18,-0.195,-0.165,-0.16,-0.155,-0.16,-0.16,-0.155,-0.155,-0.14,-0.13,-0.14,-0.145,-0.145,-0.135,-0.12,-0.11,-0.11,2
-0.26,-0.27,-0.27,-0.25,-0.255,-0.265,-0.27,-0.265,-0.255,-0.25,-0.25,-0.255,-0.265,-0.245,-0.23,-0.21,-0.2,-0.195,-0.215,-0.24,2
-0.79,-0.74,-0.69,-0.645,-0.6,-0.57,-0.555,-0.525,-0.5,-0.475,-0.46,-0.465,-0.475,-0.46,-0.445,-0.425,-0.41,-0.405,-0.425,-0.435,2
-0.76,-0.755,-0.755,-0.77,-0.78,-0.775,-0.77,-0.785,-0.795,-0.775,-0.735,-0.73,-0.72,-0.725,-0.75,-0.755,-0.715,-0.66,-0.625,-0.59,2
-1.095,-1.08,-1.075,-1.07,-1.06,-1.045,-1.035,-1.0,-0.965,-0.92,-0.88,-0.82,-0.77,-0.7,-0.625,-0.575,-0.525,-0.49,-0.465,-0.43,0
-0.09,-0.095,-0.1,-0.09,-0.085,-0.095,-0.115,-0.115,-0.135,-0.125,-0.135,-0.155,-0.175,-0.2,-0.22,-0.24,-0.275,-0.315,-0.345,-0.4,3
-0.22,-0.24,-0.225,-0.21,-0.205,-0.215,-0.22,-0.225,-0.23,-0.215,-0.22,-0.225,-0.23,-0.23,-0.23,-0.23,-0.22,-0.22,-0.235,-0.235,1
-0.98,-0.945,-0.93,-0.96,-1.02,-1.07,-1.085,-1.045,-1.0,-0.97,-0.925,-0.885,-0.825,-0.77,-0.705,-0.665,-0.61,-0.56,-0.54,-0.5,0
-0.215,-0.22,-0.225,-0.23,-0.23,-0.23,-0.23,-0.22,-0.22,-0.235,-0.235,-0.24,-0.215,-0.225,-0.215,-0.235,-0.25,-0.245,-0.235,-0.225,1
-0.22,-0.225,-0.23,-0.25,-0.24,-0.22,-0.205,-0.21,-0.22,-0.245,-0.23,-0.215,-0.215,-0.21,-0.22,-0.24,-0.225,-0.21,-0.205,-0.215,4
-0.16,-0.15,-0.13,-0.13,-0.105,-0.11,-0.095,-0.095,-0.075,-0.055,-0.03,-0.03,-0.02,-0.02,-0.005,0.0,-0.005,-0.02,-0.03,-0.04,2
-0.585,-0.655,-0.66,-0.61,-0.58,-0.565,-0.565,-0.57,-0.575,-0.565,-0.57,-0.585,-0.585,-0.58,-0.545,-0.52,-0.52,-0.55,-0.605,-0.625,2
-0.055,-0.04,-0.035,-0.045,-0.045,-0.025,-0.025,-0.025,-0.03,-0.045,-0.03,-0.015,0.0,-0.015,-0.01,-0.025,-0.02,-0.005,-0.01,-0.02,4
-0.345,-0.345,-0.35,-0.35,-0.36,-0.37,-0.365,-0.355,-0.355,-0.365,-0.385,-0.375,-0.365,-0.36,-0.355,-0.385,-0.39,-0.385,-0.39,-0.375,1
-0.195,-0.19,-0.175,-0.16,-0.17,-0.175,-0.185,-0.185,-0.175,-0.17,-0.17,-0.18,-0.185,-0.2,-0.185,-0.18,-0.18,-0.185,-0.18,-0.2,1
-0.185,-0.17,-0.175,-0.185,-0.2,-0.19,-0.185,-0.185,-0.175,-0.19,-0.2,-0.21,-0.19,-0.185,-0.19,-0.19,-0.195,-0.2,-0.185,-0.18,1
0.515,0.935,0.905,0.5,0.16,0.07,0.09,0.105,0.075,0.035,0.03,0.03,0.05,0.03,0.025,0.01,0.005,0.015,0.0,-0.03,1
0.065,0.18,0.31,0.45,0.545,0.6,0.88,1.425,1.72,1.56,1.24,0.975,0.765,0.57,0.38,0.175,-0.01,-0.195,-0.335,-0.435,3
-0.09,-0.115,-0.12,-0.125,-0.13,-0.125,-0.12,-0.13,-0.145,-0.145,-0.13,-0.125,-0.13,-0.14,-0.15,-0.135,-0.13,-0.115,-0.12,-0.125,4
-0.32,-0.35,-0.34,-0.33,-0.335,-0.33,-0.325,-0.305,-0.29,-0.27,-0.245,-0.24,-0.235,-0.23,-0.225,-0.21,-0.21,-0.185,-0.195,-0.19,2
-0.365,-0.4,-0.45,-0.505,-0.595,-0.695,-0.77,-0.825,-0.845,-0.915,-0.965,-1.025,-1.06,-1.065,-1.07,-1.08,-1.095,-1.095,-1.08,-1.075,3
-0.66,-0.595,-0.535,-0.455,-0.415,-0.35,-0.32,-0.305,-0.335,-0.36,-0.405,-0.435,-0.45,-0.46,-0.485,-0.49,-0.495,-0.47,-0.42,-0.395,3
0.015,0.015,0.005,0.015,0.04,0.025,0.025,0.01,0.02,0.04,0.045,0.055,0.055,0.045,0.045,0.06,0.07,0.07,0.065,0.065,2
-0.29,-0.29,-0.28,-0.27,-0.275,-0.275,-0.26,-0.26,-0.25,-0.24,-0.205,-0.15,-0.04,0.16,0.63,1.095,1.085,0.765,0.565,0.605,2
-0.235,-0.235,-0.24,-0.245,-0.23,-0.22,-0.235,-0.23,-0.24,-0.23,-0.23,-0.23,-0.25,-0.23,-0.235,-0.225,-0.215,-0.2,-0.205,-0.21,2
-0.105,-0.13,-0.145,-0.16,-0.145,-0.14,-0.15,-0.17,-0.18,-0.19,-0.195,-0.185,-0.19,-0.21,-0.225,-0.24,-0.235,-0.235,-0.225,-0.22,1
-0.225,-0.215,-0.215,-0.21,-0.21,-0.215,-0.23,-0.225,-0.225,-0.23,-0.225,-0.245,-0.255,-0.255,-0.24,-0.22,-0.225,-0.22,-0.23,-0.23,1
-0.49,-0.555,-0.555,-0.52,-0.49,-0.475,-0.47,-0.47,-0.465,-0.455,-0.44,-0.425,-0.425,-0.435,-0.455,-0.445,-0.43,-0.41,-0.44,-0.445,2
-0.41,-0.39,-0.355,-0.33,-0.3,-0.295,-0.275,-0.285,-0.29,-0.29,-0.24,-0.22,-0.22,-0.235,-0.235,-0.23,-0.215,-0.21,-0.22,-0.23,2
-0.21,-0.185,-0.195,-0.19,-0.175,-0.175,-0.17,-0.185,-0.185,-0.195,-0.175,-0.145,-0.12,-0.12,-0.13,-0.14,-0.14,-0.12,-0.12,-0.105,2
-0.415,-0.38,-0.35,-0.335,-0.325,-0.33,-0.33,-0.33,-0.295,-0.28,-0.27,-0.275,-0.28,-0.28,-0.27,-0.265,-0.265,-0.275,-0.29,-0.265,2
-0.04,-0.055,-0.07,-0.08,-0.085,-0.06,-0.075,-0.08,-0.105,-0.105,-0.115,-0.105,-0.13,-0.145,-0.16,-0.145,-0.14,-0.15,-0.17,-0.18,3
-0.235,-0.21,-0.22,-0.225,-0.23,-0.24,-0.24,-0.235,-0.23,-0.23,-0.225,-0.235,-0.25,-0.24,-0.24,-0.225,-0.235,-0.24,-0.24,-0.23,4
-0.55,-0.555,-0.565,-0.595,-0.62,-0.655,-0.65,-0.62,-0.59,-0.585,-0.595,-0.62,-0.65,-0.68,-0.655,-0.635,-0.605,-0.575,-0.575,-0.595,1
-0.365,-0.365,-0.375,-0.385,-0.385,-0.38,-0.365,-0.375,-0.385,-0.39,-0.38,-0.37,-0.365,-0.38,-0.385,-0.395,-0.385,-0.38,-0.38,-0.37,4
-0.63,-0.635,-0.63,-0.61,-0.595,-0.595,-0.61,-0.61,-0.6,-0.59,-0.565,-0.54,-0.505,-0.515,-0.525,-0.535,-0.525,-0.515,-0.51,-0.51,2
-0.29,-0.315,-0.335,-0.335,-0.325,-0.325,-0.325,-0.315,-0.295,-0.265,-0.25,-0.225,-0.23,-0.23,-0.225,-0.21,-0.185,-0.17,-0.175,-0.175,2
-0.375,-0.37,-0.385,-0.395,-0.4,-0.41,-0.405,-0.405,-0.415,-0.43,-0.445,-0.445,-0.435,-0.445,-0.45,-0.46,-0.48,-0.47,-0.465,-0.455,1
0.045,0.05,0.055,0.065,0.05,0.04,0.0,0.02,0.01,0.025,0.005,-0.005,-0.025,-0.025,-0.035,-0.035,-0.035,-0.06,-0.085,-0.085,3
-0.21,-0.205,-0.2,-0.195,-0.205,-0.23,-0.235,-0.255,-0.265,-0.26,-0.26,-0.28,-0.305,-0.32,-0.31,-0.295,-0.295,-0.3,-0.3,-0.31,3
-0.04,-0.035,-0.045,-0.055,-0.055,-0.04,-0.03,-0.03,-0.04,-0.03,-0.045,-0.04,-0.03,-0.03,-0.025,-0.035,-0.045,-0.04,-0.03,-0.035,4
-0.245,-0.235,-0.24,-0.235,-0.225,-0.21,-0.195,-0.19,-0.195,-0.18,-0.185,-0.18,-0.16,-0.16,-0.175,-0.19,-0.185,-0.18,-0.165,-0.16,2
-0.165,-0.125,-0.105,-0.055,0.045,0.32,0.775,1.065,0.845,0.425,0.18,0.16,0.195,0.195,0.145,0.105,0.07,0.075,0.065,0.075,0
-0.155,-0.17,-0.185,-0.165,-0.175,-0.175,-0.16,-0.185,-0.185,-0.18,-0.16,-0.18,-0.19,-0.19,-0.205,-0.18,-0.175,-0.185,-0.185,-0.205,1
-0.22,-0.23,-0.23,-0.23,-0.23,-0.245,-0.27,-0.275,-0.275,-0.255,-0.24,-0.24,-0.23,-0.25,-0.25,-0.26,-0.24,-0.245,-0.245,-0.245,3
0.01,0.005,0.01,0.0,-0.005,-0.015,0.005,0.0,0.005,-0.005,-0.02,-0.03,-0.02,-0.015,-0.015,-0.025,-0.05,-0.075,-0.08,-0.11,1
-0.22,-0.21,-0.195,-0.17,-0.16,-0.155,-0.155,-0.155,-0.145,-0.14,-0.13,-0.14,-0.14,-0.145,-0.14,-0.12,-0.115,-0.125,-0.13,-0.12,2
-0.23,-0.215,-0.2,-0.18,-0.13,-0.005,0.28,0.74,0.99,0.715,0.27,0.03,0.01,0.075,0.065,0.035,-0.005,-0.015,0.0,0.01,0
-0.255,-0.26,-0.265,-0.255,-0.255,-0.255,-0.275,-0.275,-0.275,-0.26,-0.27,-0.28,-0.285,-0.29,-0.285,-0.275,-0.275,-0.275,-0.3,-0.285,1
-0.395,-0.385,-0.375,-0.365,-0.34,-0.34,-0.35,-0.36,-0.36,-0.35,-0.33,-0.325,-0.32,-0.325,-0.31,-0.295,-0.28,-0.275,-0.285,-0.265,2
-0.06,-0.07,-0.08,-0.095,-0.105,-0.105,-0.095,-0.11,-0.11,-0.12,-0.125,-0.125,-0.12,-0.13,-0.135,-0.15,-0.16,-0.155,-0.14,-0.155,1
-0.745,-0.7,-0.67,-0.645,-0.6,-0.53,-0.48,-0.445,-0.425,-0.415,-0.38,-0.35,-0.335,-0.325,-0.33,-0.33,-0.33,-0.295,-0.28,-0.27,2
-0.105,-0.11,-0.115,-0.13,-0.145,-0.16,-0.165,-0.15,-0.145,-0.175,-0.18,-0.205,-0.2,-0.2,-0.195,-0.195,-0.215,-0.225,-0.225,-0.215,1
-0.155,-0.115,-0.03,0.06,0.155,0.25,0.33,0.415,0.55,0.73,0.905,1.01,1.015,1.135,1.52,1.68,1.435,0.995,0.66,0.435,0
-0.445,-0.445,-0.455,-0.455,-0.44,-0.455,-0.45,-0.465,-0.47,-0.46,-0.46,-0.46,-0.475,-0.48,-0.475,-0.48,-0.465,-0.47,-0.485,-0.495,1
-0.01,-0.015,-0.01,0.0,-0.035,-0.035,-0.05,-0.055,-0.05,-0.045,-0.045,-0.055,-0.07,-0.065,-0.06,-0.06,-0.065,-0.075,-0.09,-0.075,1
-0.22,-0.215,-0.225,-0.24,-0.235,-0.235,-0.225,-0.215,-0.225,-0.23,-0.235,-0.23,-0.225,-0.215,-0.235,-0.235,-0.24,-0.245,-0.23,-0.22,4
-0.185,-0.185,-0.19,-0.205,-0.215,-0.205,-0.19,-0.175,-0.18,-0.195,-0.19,-0.205,-0.205,-0.195,-0.205,-0.2,-0.215,-0.215,-0.2,-0.205,1
-0.09,-0.08,-0.075,-0.08,-0.085,-0.1,-0.105,-0.105,-0.08,-0.085,-0.095,-0.095,-0.105,-0.09,-0.1,-0.11,-0.1,-0.11,-0.11,-0.1,1
-0.28,-0.265,-0.265,-0.26,-0.235,-0.205,-0.175,-0.175,-0.165,-0.16,-0.15,-0.13,-0.13,-0.105,-0.11,-0.095,-0.095,-0.075,-0.055,-0.03,2
-0.43,-0.455,-0.445,-0.42,-0.38,-0.385,-0.41,-0.425,-0.435,-0.415,-0.395,-0.395,-0.42,-0.455,-0.46,-0.44,-0.43,-0.425,-0.435,-0.47,1
-0.24,-0.255,-0.25,-0.24,-0.23,-0.24,-0.25,-0.26,-0.255,-0.245,-0.24,-0.235,-0.25,-0.255,-0.255,-0.255,-0.22,-0.245,-0.255,-0.25,4
-0.21,-0.2,-0.205,-0.215,-0.215,-0.23,-0.225,-0.22,-0.215,-0.215,-0.24,-0.255,-0.25,-0.235,-0.23,-0.24,-0.24,-0.255,-0.25,-0.24,1
-0.34,-0.36,-0.35,-0.345,-0.315,-0.32,-0.325,-0.355,-0.35,-0.36,-0.37,-0.38,-0.395,-0.4,-0.395,-0.385,-0.38,-0.39,-0.405,-0.415,3
-0.605,-0.6,-0.605,-0.62,-0.65,-0.67,-0.695,-0.685,-0.685,-0.67,-0.7,-0.71,-0.7,-0.685,-0.685,-0.7,-0.715,-0.715,-0.7,-0.685,1
-0.245,-0.27,-0.265,-0.26,-0.26,-0.265,-0.25,-0.26,-0.24,-0.24,-0.245,-0.25,-0.265,-0.275,-0.26,-0.24,-0.25,-0.26,-0.27,-0.285,0
-0.18,-0.175,-0.175,-0.19,-0.2,-0.195,-0.185,-0.185,-0.19,-0.19,-0.215,-0.2,-0.2,-0.19,-0.19,-0.21,-0.215,-0.21,-0.205,-0.195,1
0.485,0.115,-0.06,-0.065,-0.06,-0.07,-0.1,-0.125,-0.125,-0.13,-0.135,-0.145,-0.145,-0.16,-0.165,-0.175,-0.205,-0.22,-0.24,-0.26,3
-0.26,-0.155,0.06,0.495,0.825,0.675,0.225,-0.04,-0.115,-0.075,-0.07,-0.09,-0.11,-0.145,-0.16,-0.15,-0.14,-0.13,-0.135,-0.145,1
-0.205,-0.2,-0.225,-0.235,-0.245,-0.25,-0.235,-0.22,-0.21,-0.22,-0.23,-0.245,-0.24,-0.24,-0.245,-0.25,-0.26,-0.255,-0.255,-0.245,3
0.115,0.11,0.11,0.12,0.12,0.11,0.1,0.09,0.085,0.095,0.1,0.085,0.07,0.055,0.045,0.04,0.045,0.045,0.02,0.0,1
-0.33,-0.34,-0.315,-0.265,-0.235,-0.125,0.14,0.595,0.875,0.655,0.225,-0.02,-0.065,-0.025,-0.03,-0.05,-0.085,-0.105,-0.12,-0.135,2
-0.485,-0.5,-0.495,-0.49,-0.5,-0.515,-0.53,-0.52,-0.535,-0.52,-0.515,-0.53,-0.545,-0.54,-0.53,-0.52,-0.53,-0.53,-0.545,-0.545,1
-0.49,-0.5,-0.485,-0.51,-0.49,-0.48,-0.475,-0.475,-0.475,-0.485,-0.48,-0.47,-0.465,-0.47,-0.48,-0.475,-0.47,-0.455,-0.45,-0.445,2
-0.035,0.17,0.625,0.995,0.84,0.385,0.1,0.06,0.1,0.125,0.09,0.05,0.035,0.025,0.04,0.065,0.065,0.05,0.04,0.03,1
-0.025,-0.03,-0.05,-0.085,-0.105,-0.12,-0.135,-0.125,-0.13,-0.14,-0.155,-0.195,-0.205,-0.195,-0.21,-0.22,-0.245,-0.295,-0.335,-0.365,3
-0.295,-0.28,-0.29,-0.305,-0.305,-0.3,-0.285,-0.29,-0.295,-0.31,-0.295,-0.285,-0.285,-0.275,-0.28,-0.28,-0.24,-0.19,-0.1,0.185,4
-0.045,-0.055,-0.055,-0.04,-0.03,-0.03,-0.04,-0.03,-0.045,-0.04,-0.03,-0.03,-0.025,-0.035,-0.045,-0.04,-0.03,-0.035,-0.05,-0.055,4
-0.09,-0.095,-0.075,-0.075,-0.07,-0.055,-0.075,-0.075,-0.06,-0.055,-0.055,-0.05,-0.06,-0.065,-0.055,-0.04,-0.035,-0.04,-0.035,-0.03,2
-0.245,-0.23,-0.235,-0.245,-0.245,-0.245,-0.24,-0.225,-0.235,-0.235,-0.24,-0.235,-0.23,-0.225,-0.24,-0.25,-0.245,-0.24,-0.225,-0.24,4
-0.18,-0.185,-0.195,-0.205,-0.185,-0.185,-0.195,-0.185,-0.195,-0.19,-0.19,-0.18,-0.18,-0.205,-0.195,-0.2,-0.185,-0.185,-0.19,-0.205,4
-0.19,-0.205,-0.205,-0.21,-0.205,-0.205,-0.225,-0.225,-0.23,-0.245,-0.24,-0.24,-0.23,-0.245,-0.24,-0.25,-0.235,-0.245,-0.25,-0.26,3
-0.41,-0.425,-0.435,-0.415,-0.395,-0.395,-0.42,-0.455,-0.46,-0.44,-0.43,-0.425,-0.435,-0.47,-0.47,-0.445,-0.42,-0.4,-0.395,-0.395,1
-0.285,-0.295,-0.29,-0.29,-0.305,-0.285,-0.28,-0.3,-0.31,-0.315,-0.31,-0.31,-0.31,-0.32,-0.32,-0.32,-0.325,-0.31,-0.31,-0.32,1
0.33,0.415,0.55,0.73,0.905,1.01,1.015,1.135,1.52,1.68,1.435,0.995,0.66,0.435,0.265,0.08,-0.095,-0.23,-0.3,-0.34,0
-0.25,-0.245,-0.245,-0.23,-0.235,-0.245,-0.245,-0.245,-0.24,-0.225,-0.235,-0.235,-0.24,-0.235,-0.23,-0.225,-0.24,-0.25,-0.245,-0.24,4
-0.085,-0.09,-0.11,-0.12,-0.115,-0.12,-0.125,-0.135,-0.145,-0.155,-0.155,-0.14,-0.145,-0.16,-0.155,-0.17,-0.165,-0.16,-0.16,-0.18,3
-0.43,-0.425,-0.44,-0.435,-0.45,-0.435,-0.435,-0.445,-0.445,-0.45,-0.46,-0.46,-0.46,-0.47,-0.485,-0.495,-0.5,-0.49,-0.49,-0.49,3
-0.335,-0.325,-0.31,-0.315,-0.345,-0.375,-0.37,-0.355,-0.345,-0.35,-0.365,-0.365,-0.365,-0.33,-0.325,-0.335,-0.34,-0.36,-0.35,-0.345,1
-0.37,-0.38,-0.395,-0.4,-0.395,-0.385,-0.38,-0.39,-0.405,-0.415,-0.405,-0.375,-0.35,-0.35,-0.375,-0.37,-0.365,-0.355,-0.36,-0.365,4
-0.095,-0.08,-0.09,-0.1,-0.11,-0.1,-0.095,-0.095,-0.085,-0.095,-0.095,-0.085,-0.075,-0.07,-0.08,-0.07,-0.08,-0.06,-0.045,-0.035,2
-0.34,-0.32,-0.305,-0.31,-0.315,-0.31,-0.3,-0.285,-0.285,-0.3,-0.31,-0.305,-0.31,-0.305,-0.325,-0.335,-0.35,-0.35,-0.335,-0.335,3
-0.285,-0.305,-0.305,-0.31,-0.3,-0.295,-0.29,-0.305,-0.305,-0.3,-0.285,-0.29,-0.29,-0.295,-0.31,-0.3,-0.3,-0.28,-0.27,-0.29,4
-0.095,-0.095,-0.075,-0.055,-0.03,-0.03,-0.02,-0.02,-0.005,0.0,-0.005,-0.02,-0.03,-0.04,-0.03,-0.02,-0.025,-0.04,-0.04,-0.04,1
-0.59,-0.585,-0.595,-0.6,-0.61,-0.6,-0.595,-0.595,-0.605,-0.605,-0.61,-0.595,-0.585,-0.575,-0.59,-0.59,-0.595,-0.58,-0.57,-0.565,2
0.035,0.035,0.06,0.05,0.015,-0.005,-0.005,-0.005,-0.005,-0.005,-0.025,-0.03,-0.03,-0.025,-0.035,-0.045,-0.07,-0.07,-0.1,-0.115,1
0.05,0.055,0.065,0.065,0.055,0.055,0.065,0.07,0.085,0.08,0.07,0.07,0.075,0.085,0.08,0.095,0.08,0.07,0.07,0.07,2
-0.455,-0.45,-0.475,-0.485,-0.5,-0.495,-0.49,-0.5,-0.515,-0.53,-0.52,-0.535,-0.52,-0.515,-0.53,-0.545,-0.54,-0.53,-0.52,-0.53,3
-0.155,-0.165,-0.17,-0.165,-0.145,-0.16,-0.17,-0.165,-0.175,-0.175,-0.16,-0.175,-0.175,-0.19,-0.2,-0.18,-0.17,-0.175,-0.18,-0.195,1
-0.245,-0.26,-0.27,-0.275,-0.265,-0.25,-0.26,-0.26,-0.285,-0.255,-0.23,-0.245,-0.23,-0.225,-0.24,-0.235,-0.225,-0.21,-0.205,-0.21,2
-0.09,-0.085,-0.075,-0.065,-0.06,-0.08,-0.075,-0.075,-0.065,-0.06,-0.06,-0.05,-0.07,-0.07,-0.055,-0.05,-0.05,-0.04,-0.045,-0.035,4
-0.24,-0.235,-0.235,-0.225,-0.22,-0.23,-0.245,-0.25,-0.24,-0.235,-0.24,-0.245,-0.255,-0.26,-0.265,-0.255,-0.255,-0.255,-0.275,-0.275,1
-0.245,-0.26,-0.285,-0.275,-0.275,-0.275,-0.27,-0.265,-0.265,-0.255,-0.245,-0.245,-0.235,-0.245,-0.245,-0.25,-0.25,-0.23,-0.215,-0.215,2
-0.255,-0.275,-0.275,-0.285,-0.295,-0.285,-0.28,-0.28,-0.3,-0.305,-0.3,-0.295,-0.29,-0.295,-0.295,-0.315,-0.315,-0.315,-0.3,-0.295,1
-0.115,-0.12,-0.12,-0.11,-0.085,-0.095,-0.095,-0.09,-0.095,-0.075,-0.075,-0.07,-0.055,-0.075,-0.075,-0.06,-0.055,-0.055,-0.05,-0.06,2
-0.225,-0.23,-0.215,-0.22,-0.225,-0.23,-0.23,-0.23,-0.23,-0.22,-0.22,-0.235,-0.235,-0.24,-0.215,-0.225,-0.215,-0.235,-0.25,-0.245,1
-0.37,-0.37,-0.37,-0.38,-0.36,-0.365,-0.36,-0.36,-0.365,-0.35,-0.34,-0.31,-0.28,-0.245,-0.155,0.06,0.505,0.88,0.75,0.315,2
-0.595,-0.6,-0.63,-0.63,-0.64,-0.665,-0.64,-0.585,-0.535,-0.57,-0.625,-0.67,-0.675,-0.665,-0.665,-0.675,-0.67,-0.64,-0.62,-0.62,0
0.145,0.07,0.09,0.085,0.065,0.045,0.04,0.03,0.005,0.005,0.0,-0.005,-0.015,-0.04,-0.045,-0.055,-0.06,-0.075,-0.095,-0.13,3
-0.45,-0.525,-0.585,-0.64,-0.69,-0.745,-0.795,-0.845,-0.885,-0.9,-0.895,-0.9,-0.895,-0.92,-0.92,-0.94,-0.92,-0.9,-0.9,-0.91,3
-0.25,-0.25,-0.265,-0.25,-0.255,-0.235,-0.245,-0.265,-0.265,-0.265,-0.255,-0.25,-0.265,-0.27,-0.265,-0.255,-0.245,-0.235,-0.25,-0.26,4
0.075,0.035,0.03,0.03,0.05,0.03,0.025,0.01,0.005,0.015,0.0,-0.03,-0.06,-0.065,-0.09,-0.115,-0.16,-0.21,-0.26,-0.3,3
-0.145,-0.13,-0.11,-0.095,-0.11,-0.105,-0.115,-0.105,-0.095,-0.085,-0.09,-0.08,-0.09,-0.085,-0.075,-0.065,-0.06,-0.08,-0.075,-0.075,2
0.02,0.035,0.04,0.045,0.035,0.015,0.03,0.055,0.065,0.055,0.04,0.055,0.055,0.075,0.07,0.065,0.06,0.05,0.06,0.085,4
0.035,0.025,0.01,0.025,0.03,0.045,0.05,0.035,0.035,0.05,0.05,0.055,0.045,0.055,0.055,0.065,0.08,0.08,0.095,0.08,2
-0.21,-0.195,-0.19,-0.195,-0.18,-0.185,-0.18,-0.16,-0.16,-0.175,-0.19,-0.185,-0.18,-0.165,-0.16,-0.16,-0.175,-0.165,-0.165,-0.165,2
-0.14,-0.165,-0.185,-0.195,-0.19,-0.18,-0.185,-0.2,-0.215,-0.205,-0.2,-0.195,-0.195,-0.2,-0.205,-0.21,-0.19,-0.155,-0.145,-0.1,1
-0.22,-0.23,-0.245,-0.24,-0.24,-0.225,-0.225,-0.235,-0.23,-0.24,-0.225,-0.23,-0.215,-0.225,-0.24,-0.245,-0.23,-0.23,-0.225,-0.23,4
-0.235,-0.245,-0.245,-0.245,-0.24,-0.225,-0.235,-0.235,-0.24,-0.235,-0.23,-0.225,-0.24,-0.25,-0.245,-0.24,-0.225,-0.24,-0.235,-0.265,4
-0.02,-0.025,-0.035,-0.035,-0.02,-0.005,-0.015,-0.01,-0.015,-0.02,-0.005,0.015,0.015,0.015,0.025,0.01,0.025,0.045,0.03,0.04,2
-0.515,-0.52,-0.495,-0.46,-0.42,-0.395,-0.375,-0.35,-0.34,-0.32,-0.31,-0.315,-0.305,-0.3,-0.29,-0.265,-0.255,-0.26,-0.26,-0.24,2
-0.26,-0.255,-0.25,-0.25,-0.24,-0.245,-0.255,-0.26,-0.26,-0.255,-0.26,-0.26,-0.275,-0.275,-0.27,-0.255,-0.265,-0.26,-0.275,-0.305,1
0.175,-0.01,-0.195,-0.335,-0.435,-0.49,-0.525,-0.545,-0.545,-0.51,-0.515,-0.55,-0.6,-0.6,-0.565,-0.555,-0.56,-0.575,-0.59,-0.575,1
-0.18,-0.18,-0.18,-0.175,-0.165,-0.16,-0.155,-0.15,-0.16,-0.155,-0.145,-0.13,-0.14,-0.14,-0.15,-0.145,-0.13,-0.125,-0.125,-0.125,2
-0.18,-0.175,-0.17,-0.18,-0.18,-0.195,-0.165,-0.16,-0.155,-0.16,-0.16,-0.155,-0.155,-0.14,-0.13,-0.14,-0.145,-0.145,-0.135,-0.12,2
-0.19,-0.17,-0.17,-0.18,-0.19,-0.19,-0.195,-0.185,-0.17,-0.175,-0.185,-0.2,-0.19,-0.185,-0.185,-0.175,-0.19,-0.2,-0.21,-0.19,4
-0.175,-0.16,-0.145,-0.12,-0.04,0.135,0.515,0.935,0.905,0.5,0.16,0.07,0.09,0.105,0.075,0.035,0.03,0.03,0.05,0.03,0
-0.195,-0.215,-0.24,-0.23,-0.235,-0.205,-0.205,-0.2,-0.19,-0.185,-0.175,-0.175,-0.2,-0.22,-0.22,-0.2,-0.175,-0.18,-0.2,-0.235,0
-0.075,-0.095,-0.1,-0.105,-0.095,-0.095,-0.125,-0.145,-0.155,-0.145,-0.12,-0.135,-0.145,-0.16,-0.17,-0.16,-0.155,-0.16,-0.165,-0.185,1
0.25,0.255,0.225,0.215,0.185,0.165,0.16,0.16,0.145,0.135,0.12,0.105,0.09,0.095,0.075,0.06,0.035,0.03,0.025,0.025,3
-0.4,-0.445,-0.475,-0.525,-0.59,-0.68,-0.745,-0.805,-0.85,-0.905,-0.95,-1.005,-1.06,-1.055,-1.07,-1.07,-1.07,-1.075,-1.08,-1.08,3
-0.08,-0.07,-0.05,-0.055,-0.055,-0.07,-0.055,-0.045,-0.045,-0.04,-0.045,-0.055,-0.05,-0.04,-0.03,-0.025,-0.04,-0.045,-0.045,-0.025,4
-0.025,-0.025,-0.025,-0.055,-0.05,-0.055,-0.025,-0.01,-0.005,-0.01,-0.005,-0.005,0.005,0.01,0.005,0.015,0.01,0.025,0.025,0.005,2
-0.29,-0.295,-0.29,-0.29,-0.29,-0.28,-0.27,-0.275,-0.275,-0.26,-0.26,-0.25,-0.24,-0.205,-0.15,-0.04,0.16,0.63,1.095,1.085,2
-0.085,-0.085,-0.085,-0.085,-0.08,-0.095,-0.11,-0.12,-0.125,-0.115,-0.135,-0.135,-0.15,-0.155,-0.15,-0.155,-0.135,-0.155,-0.17,-0.185,3
-0.175,-0.175,-0.175,-0.14,-0.12,-0.09,-0.03,0.155,0.605,0.91,0.69,0.275,0.075,0.075,0.12,0.12,0.085,0.075,0.07,0.08,2
0.17,0.165,0.17,0.19,0.2,0.195,0.195,0.195,0.19,0.205,0.225,0.225,0.23,0.23,0.225,0.25,0.255,0.225,0.215,0.185,2
-0.265,-0.25,-0.26,-0.26,-0.285,-0.255,-0.23,-0.245,-0.23,-0.225,-0.24,-0.235,-0.225,-0.21,-0.205,-0.21,-0.225,-0.21,-0.205,-0.185,2
-0.1,-0.115,-0.12,-0.12,-0.11,-0.085,-0.095,-0.095,-0.09,-0.095,-0.075,-0.075,-0.07,-0.055,-0.075,-0.075,-0.06,-0.055,-0.055,-0.05,2
-0.365,-0.355,-0.355,-0.365,-0.385,-0.375,-0.365,-0.36,-0.355,-0.385,-0.39,-0.385,-0.39,-0.375,-0.385,-0.39,-0.4,-0.385,-0.37,-0.36,1
-0.385,-0.37,-0.375,-0.37,-0.38,-0.39,-0.38,-0.365,-0.36,-0.355,-0.375,-0.375,-0.37,-0.37,-0.355,-0.355,-0.36,-0.355,-0.36,-0.34,4
0.12,0.115,0.11,0.1,0.13,0.145,0.155,0.165,0.17,0.165,0.17,0.19,0.2,0.195,0.195,0.195,0.19,0.205,0.225,0.225,2
-0.23,-0.23,-0.23,-0.23,-0.22,-0.22,-0.235,-0.235,-0.24,-0.215,-0.225,-0.215,-0.235,-0.25,-0.245,-0.235,-0.225,-0.22,-0.235,-0.245,1
-0.26,-0.275,-0.265,-0.255,-0.26,-0.27,-0.275,-0.27,-0.265,-0.24,-0.25,-0.255,-0.255,-0.265,-0.25,-0.245,-0.245,-0.255,-0.265,-0.265,4
-0.04,-0.035,-0.045,-0.045,-0.025,-0.025,-0.025,-0.03,-0.045,-0.03,-0.015,0.0,-0.015,-0.01,-0.025,-0.02,-0.005,-0.01,-0.02,-0.025,4
-0.45,-0.445,-0.455,-0.435,-0.425,-0.405,-0.415,-0.42,-0.41,-0.395,-0.385,-0.38,-0.365,-0.365,-0.35,-0.345,-0.32,-0.31,-0.31,-0.3,0
-0.96,-0.98,-1.02,-1.035,-1.04,-1.05,-1.04,-1.035,-1.04,-1.04,-1.015,-0.975,-0.93,-0.89,-0.835,-0.78,-0.72,-0.65,-0.595,-0.54,2
-0.03,-0.015,-0.02,-0.035,-0.025,-0.02,0.0,0.005,0.005,-0.015,-0.005,0.005,0.01,0.02,0.01,0.005,0.01,0.025,0.03,0.03,2
-0.5,-0.48,-0.465,-0.465,-0.455,-0.445,-0.405,-0.39,-0.38,-0.37,-0.37,-0.375,-0.38,-0.365,-0.375,-0.38,-0.39,-0.39,-0.35,-0.33,2
-0.09,-0.085,-0.085,-0.07,-0.05,-0.04,-0.04,-0.035,-0.035,-0.04,-0.03,-0.015,-0.015,-0.02,-0.03,-0.025,-0.015,0.005,0.005,0.015,2
-0.19,-0.195,-0.175,-0.17,-0.175,-0.175,-0.175,-0.175,-0.14,-0.12,-0.09,-0.03,0.155,0.605,0.91,0.69,0.275,0.075,0.075,0.12,2
-0.235,-0.24,-0.225,-0.23,-0.25,-0.255,-0.265,-0.26,-0.255,-0.255,-0.265,-0.275,-0.275,-0.28,-0.27,-0.27,-0.275,-0.285,-0.295,-0.285,1
-0.16,-0.155,-0.15,-0.16,-0.155,-0.145,-0.13,-0.14,-0.14,-0.15,-0.145,-0.13,-0.125,-0.125,-0.125,-0.135,-0.13,-0.11,-0.1,-0.115,4
-0.31,-0.33,-0.36,-0.415,-0.445,-0.45,-0.43,-0.39,-0.335,-0.27,-0.22,-0.165,-0.16,-0.195,-0.255,-0.3,-0.335,-0.4,-0.44,-0.48,2
-0.24,-0.22,-0.205,-0.21,-0.22,-0.245,-0.23,-0.215,-0.215,-0.21,-0.22,-0.24,-0.225,-0.21,-0.205,-0.215,-0.22,-0.225,-0.23,-0.215,4
-0.39,-0.38,-0.36,-0.335,-0.33,-0.345,-0.38,-0.42,-0.43,-0.43,-0.42,-0.405,-0.385,-0.38,-0.39,-0.405,-0.43,-0.45,-0.475,-0.47,0
0.185,0.165,0.16,0.16,0.145,0.135,0.12,0.105,0.09,0.095,0.075,0.06,0.035,0.03,0.025,0.025,0.015,0.005,-0.01,-0.015,3
0.055,0.045,0.04,0.045,0.045,0.02,0.0,0.005,0.0,-0.015,-0.025,-0.035,-0.055,-0.05,-0.055,-0.065,-0.065,-0.08,-0.105,-0.095,3
-0.18,-0.185,-0.175,-0.17,-0.17,-0.175,-0.195,-0.19,-0.175,-0.16,-0.17,-0.175,-0.185,-0.185,-0.175,-0.17,-0.17,-0.18,-0.185,-0.2,4
-0.5,-0.5,-0.515,-0.51,-0.5,-0.485,-0.48,-0.515,-0.535,-0.515,-0.505,-0.495,-0.485,-0.49,-0.49,-0.5,-0.485,-0.475,-0.47,-0.495,2
-0.065,-0.065,-0.08,-0.105,-0.095,-0.105,-0.105,-0.105,-0.11,-0.115,-0.115,-0.115,-0.115,-0.11,-0.105,-0.12,-0.115,-0.1,-0.1,-0.095,3
-0.24,-0.26,-0.28,-0.33,-0.36,-0.4,-0.445,-0.475,-0.525,-0.59,-0.68,-0.745,-0.805,-0.85,-0.905,-0.95,-1.005,-1.06,-1.055,-1.07,3
-0.26,-0.26,-0.255,-0.26,-0.255,-0.27,-0.26,-0.27,-0.255,-0.275,-0.28,-0.285,-0.28,-0.28,-0.27,-0.275,-0.28,-0.285,-0.295,-0.285,1
-0.945,-0.97,-0.98,-0.945,-0.93,-0.96,-1.02,-1.07,-1.085,-1.045,-1.0,-0.97,-0.925,-0.885,-0.825,-0.77,-0.705,-0.665,-0.61,-0.56,0
-0.37,-0.365,-0.36,-0.38,-0.385,-0.39,-0.4,-0.395,-0.38,-0.365,-0.355,-0.35,-0.37,-0.355,-0.325,-0.295,-0.26,-0.155,0.06,0.495,2
-0.22,-0.2,-0.195,-0.185,-0.18,-0.18,-0.18,-0.175,-0.165,-0.16,-0.155,-0.15,-0.16,-0.155,-0.145,-0.13,-0.14,-0.14,-0.15,-0.145,2
-0.025,-0.035,-0.055,-0.05,-0.055,-0.065,-0.065,-0.08,-0.105,-0.095,-0.105,-0.105,-0.105,-0.11,-0.115,-0.115,-0.115,-0.115,-0.11,-0.105,3
0.065,0.065,0.075,0.065,0.055,0.03,0.025,0.03,0.04,0.02,0.005,-0.015,-0.02,-0.01,-0.005,-0.015,-0.035,-0.05,-0.055,-0.04,1
-0.575,-0.595,-0.6,-0.63,-0.63,-0.64,-0.665,-0.64,-0.585,-0.535,-0.57,-0.625,-0.67,-0.675,-0.665,-0.665,-0.675,-0.67,-0.64,-0.62,0
-0.495,-0.5,-0.49,-0.49,-0.5,-0.485,-0.51,-0.49,-0.48,-0.475,-0.475,-0.475,-0.485,-0.48,-0.47,-0.465,-0.47,-0.48,-0.475,-0.47,4
-0.19,-0.195,-0.185,-0.17,-0.175,-0.185,-0.2,-0.19,-0.185,-0.185,-0.175,-0.19,-0.2,-0.21,-0.19,-0.185,-0.19,-0.19,-0.195,-0.2,1
-0.38,-0.365,-0.375,-0.385,-0.39,-0.38,-0.37,-0.365,-0.38,-0.385,-0.395,-0.385,-0.38,-0.38,-0.37,-0.39,-0.39,-0.385,-0.37,-0.37,4
-0.455,-0.44,-0.445,-0.435,-0.425,-0.395,-0.39,-0.375,-0.36,-0.345,-0.345,-0.33,-0.31,-0.3,-0.29,-0.295,-0.3,-0.28,-0.27,-0.265,2
-0.01,-0.005,-0.015,-0.035,-0.05,-0.055,-0.04,-0.035,-0.035,-0.06,-0.07,-0.07,-0.07,-0.055,-0.065,-0.075,-0.08,-0.09,-0.08,-0.075,1
-0.28,-0.29,-0.29,-0.29,-0.315,-0.3,-0.29,-0.29,-0.29,-0.3,-0.315,-0.3,-0.29,-0.295,-0.28,-0.29,-0.305,-0.305,-0.3,-0.285,4
-0.545,-0.535,-0.52,-0.52,-0.505,-0.495,-0.505,-0.505,-0.505,-0.515,-0.52,-0.505,-0.47,-0.485,-0.515,-0.545,-0.56,-0.55,-0.54,-0.52,1
0.065,0.05,0.04,0.0,0.02,0.01,0.025,0.005,-0.005,-0.025,-0.025,-0.035,-0.035,-0.035,-0.06,-0.085,-0.085,-0.085,-0.085,-0.08,3
0.035,0.065,0.085,0.075,0.05,0.025,0.02,0.02,0.05,0.05,0.07,0.065,0.05,0.035,0.035,0.035,0.02,0.0,-0.035,-0.075,3
0.05,0.03,0.025,0.01,0.005,0.015,0.0,-0.03,-0.06,-0.065,-0.09,-0.115,-0.16,-0.21,-0.26,-0.3,-0.35,-0.42,-0.49,-0.565,3
-0.095,-0.085,-0.095,-0.095,-0.085,-0.075,-0.07,-0.08,-0.07,-0.08,-0.06,-0.045,-0.035,-0.05,-0.06,-0.055,-0.05,-0.045,-0.045,-0.055,2
-0.285,-0.3,-0.29,-0.295,-0.285,-0.3,-0.325,-0.325,-0.32,-0.31,-0.29,-0.3,-0.3,-0.325,-0.325,-0.315,-0.315,-0.315,-0.32,-0.335,1
-0.32,-0.33,-0.35,-0.325,-0.32,-0.335,-0.33,-0.345,-0.355,-0.355,-0.345,-0.345,-0.345,-0.35,-0.35,-0.34,-0.325,-0.325,-0.325,-0.35,2
-0.305,-0.325,-0.335,-0.35,-0.35,-0.335,-0.335,-0.35,-0.36,-0.38,-0.38,-0.375,-0.37,-0.385,-0.395,-0.4,-0.41,-0.405,-0.405,-0.415,1
-0.1,-0.105,-0.105,-0.11,-0.09,-0.08,-0.085,-0.095,-0.1,-0.085,-0.075,-0.075,-0.06,-0.08,-0.075,-0.08,-0.07,-0.05,-0.055,-0.055,2
-0.29,-0.29,-0.29,-0.315,-0.3,-0.29,-0.29,-0.29,-0.3,-0.315,-0.3,-0.29,-0.295,-0.28,-0.29,-0.305,-0.305,-0.3,-0.285,-0.29,4
-0.035,-0.055,-0.05,-0.055,-0.065,-0.065,-0.08,-0.105,-0.095,-0.105,-0.105,-0.105,-0.11,-0.115,-0.115,-0.115,-0.115,-0.11,-0.105,-0.12,3
-0.205,-0.185,-0.18,-0.19,-0.175,-0.15,-0.16,-0.165,-0.145,-0.125,-0.115,-0.13,-0.125,-0.105,-0.09,-0.09,-0.095,-0.095,-0.06,-0.04,0
-0.245,-0.245,-0.24,-0.225,-0.235,-0.235,-0.24,-0.235,-0.23,-0.225,-0.24,-0.25,-0.245,-0.24,-0.225,-0.24,-0.235,-0.265,-0.265,-0.255,1
-0.155,0.11,0.55,0.765,0.485,0.115,-0.06,-0.065,-0.06,-0.07,-0.1,-0.125,-0.125,-0.13,-0.135,-0.145,-0.145,-0.16,-0.165,-0.175,3
-0.015,0.005,0.0,0.005,-0.005,-0.02,-0.03,-0.02,-0.015,-0.015,-0.025,-0.05,-0.075,-0.08,-0.11,-0.12,-0.125,-0.15,-0.17,-0.16,3
0.06,0.06,0.08,0.09,0.085,0.08,0.07,0.065,0.065,0.07,0.065,0.05,0.045,0.035,0.025,0.035,0.025,0.005,-0.005,-0.015,3
-0.07,-0.08,-0.07,-0.08,-0.06,-0.045,-0.035,-0.05,-0.06,-0.055,-0.05,-0.045,-0.045,-0.055,-0.065,-0.075,-0.06,-0.065,-0.065,-0.08,1
-0.26,-0.285,-0.33,-0.38,-0.46,-0.555,-0.605,-0.66,-0.71,-0.765,-0.815,-0.875,-0.905,-0.925,-0.935,-0.955,-0.955,-0.975,-0.965,-0.945,3
-0.21,-0.165,-0.095,0.095,0.53,0.87,0.67,0.27,0.035,0.035,0.06,0.05,0.015,-0.005,-0.005,-0.005,-0.005,-0.005,-0.025,-0.03,1
0.065,0.07,0.085,0.08,0.07,0.07,0.075,0.085,0.08,0.095,0.08,0.07,0.07,0.07,0.085,0.08,0.065,0.045,0.05,0.055,1
-0.275,-0.275,-0.285,-0.32,-0.36,-0.36,-0.36,-0.36,-0.355,-0.355,-0.365,-0.375,-0.37,-0.375,-0.39,-0.385,-0.4,-0.39,-0.38,-0.36,3
-0.23,-0.23,-0.245,-0.23,-0.225,-0.22,-0.225,-0.23,-0.255,-0.245,-0.24,-0.24,-0.24,-0.25,-0.26,-0.26,-0.255,-0.25,-0.255,-0.255,1
-0.25,-0.25,-0.255,-0.255,-0.25,-0.24,-0.225,-0.235,-0.235,-0.25,-0.24,-0.23,-0.22,-0.225,-0.23,-0.25,-0.24,-0.22,-0.205,-0.21,4
-0.47,-0.485,-0.495,-0.485,-0.485,-0.48,-0.48,-0.49,-0.495,-0.5,-0.49,-0.49,-0.5,-0.485,-0.51,-0.49,-0.48,-0.475,-0.475,-0.475,1
-0.75,-0.685,-0.635,-0.605,-0.56,-0.525,-0.48,-0.425,-0.39,-0.37,-0.36,-0.34,-0.325,-0.3,-0.295,-0.305,-0.295,-0.285,-0.26,-0.245,2
0.225,0.225,0.23,0.23,0.225,0.25,0.255,0.225,0.215,0.185,0.165,0.16,0.16,0.145,0.135,0.12,0.105,0.09,0.095,0.075,3
-0.225,-0.225,-0.23,-0.245,-0.24,-0.24,-0.23,-0.245,-0.24,-0.25,-0.235,-0.245,-0.25,-0.26,-0.26,-0.26,-0.255,-0.26,-0.255,-0.27,1
-0.945,-0.985,-1.015,-1.015,-1.01,-1.025,-1.035,-1.055,-1.05,-1.04,-1.045,-1.025,-1.015,-0.995,-0.955,-0.91,-0.855,-0.785,-0.75,-0.72,2
-1.01,-0.985,-0.94,-0.9,-0.815,-0.77,-0.72,-0.68,-0.635,-0.595,-0.535,-0.5,-0.465,-0.455,-0.44,-0.44,-0.415,-0.41,-0.395,-0.395,0
-0.125,-0.105,-0.055,0.045,0.32,0.775,1.065,0.845,0.425,0.18,0.16,0.195,0.195,0.145,0.105,0.07,0.075,0.065,0.075,0.075,1
-0.075,-0.08,-0.09,-0.08,-0.075,-0.08,-0.085,-0.1,-0.105,-0.105,-0.08,-0.085,-0.095,-0.095,-0.105,-0.09,-0.1,-0.11,-0.1,-0.11,3
-0.18,-0.215,-0.19,-0.19,-0.18,-0.185,-0.2,-0.21,-0.2,-0.2,-0.185,-0.19,-0.2,-0.205,-0.195,-0.195,-0.185,-0.185,-0.195,-0.205,4
-0.425,-0.41,-0.405,-0.425,-0.435,-0.435,-0.42,-0.415,-0.385,-0.37,-0.36,-0.365,-0.36,-0.34,-0.305,-0.295,-0.295,-0.31,-0.29,-0.26,2
-0.15,-0.145,-0.175,-0.18,-0.205,-0.2,-0.2,-0.195,-0.195,-0.215,-0.225,-0.225,-0.215,-0.22,-0.225,-0.24,-0.25,-0.245,-0.235,-0.24,1
-0.575,-0.54,-0.54,-0.565,-0.59,-0.605,-0.61,-0.605,-0.6,-0.605,-0.62,-0.65,-0.67,-0.695,-0.685,-0.685,-0.67,-0.7,-0.71,-0.7,1
-0.31,-0.31,-0.32,-0.33,-0.335,-0.345,-0.34,-0.34,-0.325,-0.35,-0.35,-0.34,-0.33,-0.34,-0.345,-0.36,-0.37,-0.36,-0.35,-0.35,1
-0.285,-0.275,-0.275,-0.255,-0.265,-0.26,-0.26,-0.25,-0.245,-0.245,-0.23,-0.235,-0.245,-0.245,-0.245,-0.24,-0.225,-0.235,-0.235,-0.24,2
-0.245,-0.25,-0.26,-0.26,-0.26,-0.255,-0.26,-0.255,-0.27,-0.26,-0.27,-0.255,-0.275,-0.28,-0.285,-0.28,-0.28,-0.27,-0.275,-0.28,1
-0.2,-0.19,-0.185,-0.185,-0.175,-0.19,-0.2,-0.21,-0.19,-0.185,-0.19,-0.19,-0.195,-0.2,-0.185,-0.18,-0.19,-0.195,-0.21,-0.21,4
-0.065,-0.08,-0.09,-0.12,-0.105,-0.1,-0.115,-0.125,-0.14,-0.165,-0.16,-0.145,-0.155,-0.16,-0.185,-0.205,-0.2,-0.205,-0.21,-0.205,1
-0.34,-0.31,-0.28,-0.245,-0.155,0.06,0.505,0.88,0.75,0.315,0.01,-0.07,-0.05,-0.035,-0.065,-0.095,-0.12,-0.125,-0.12,-0.125,0
-0.575,-0.57,-0.585,-0.6,-0.58,-0.585,-0.58,-0.59,-0.59,-0.6,-0.585,-0.57,-0.565,-0.565,-0.57,-0.585,-0.565,-0.56,-0.545,-0.54,4
-0.605,-0.625,-0.605,-0.565,-0.55,-0.555,-0.55,-0.555,-0.565,-0.595,-0.62,-0.655,-0.65,-0.62,-0.59,-0.585,-0.595,-0.62,-0.65,-0.68,3
-0.3,-0.295,-0.305,-0.31,-0.31,-0.3,-0.295,-0.305,-0.315,-0.325,-0.32,-0.315,-0.305,-0.305,-0.31,-0.32,-0.315,-0.305,-0.29,-0.3,4
-0.185,-0.175,-0.165,-0.15,-0.145,-0.15,-0.155,-0.155,-0.11,-0.09,-0.09,-0.085,-0.085,-0.07,-0.05,-0.04,-0.04,-0.035,-0.035,-0.04,2
-0.32,-0.315,-0.305,-0.29,-0.3,-0.3,-0.31,-0.305,-0.295,-0.29,-0.295,-0.295,-0.3,-0.295,-0.28,-0.275,-0.27,-0.265,-0.27,-0.21,2
-0.185,-0.165,-0.175,-0.175,-0.16,-0.185,-0.185,-0.18,-0.16,-0.18,-0.19,-0.19,-0.205,-0.18,-0.175,-0.185,-0.185,-0.205,-0.19,-0.19,1
-0.13,-0.115,-0.12,-0.125,-0.135,-0.11,-0.115,-0.1,-0.1,-0.11,-0.12,-0.1,-0.095,-0.08,-0.085,-0.085,-0.1,-0.085,-0.07,-0.06,2
-0.235,-0.24,-0.25,-0.26,-0.265,-0.25,-0.235,-0.225,-0.235,-0.24,-0.23,-0.235,-0.235,-0.235,-0.23,-0.215,-0.195,-0.205,-0.225,-0.225,2
-0.5,-0.495,-0.49,-0.5,-0.515,-0.53,-0.52,-0.535,-0.52,-0.515,-0.53,-0.545,-0.54,-0.53,-0.52,-0.53,-0.53,-0.545,-0.545,-0.525,1
-0.425,-0.435,-0.47,-0.47,-0.445,-0.42,-0.4,-0.395,-0.395,-0.4,-0.405,-0.37,-0.29,-0.23,-0.175,-0.1,-0.02,0.065,0.18,0.31,2
-0.19,-0.18,-0.185,-0.185,-0.195,-0.19,-0.175,-0.175,-0.175,-0.16,-0.145,-0.12,-0.04,0.135,0.515,0.935,0.905,0.5,0.16,0.07,2
-0.265,-0.26,-0.255,-0.255,-0.25,-0.26,-0.255,-0.26,-0.25,-0.255,-0.255,-0.265,-0.255,-0.245,-0.25,-0.255,-0.27,-0.27,-0.27,-0.265,1
-0.695,-0.685,-0.685,-0.67,-0.7,-0.71,-0.7,-0.685,-0.685,-0.7,-0.715,-0.715,-0.7,-0.685,-0.695,-0.7,-0.73,-0.75,-0.75,-0.755,1
-0.055,-0.04,-0.03,-0.03,-0.04,-0.03,-0.045,-0.04,-0.03,-0.03,-0.025,-0.035,-0.045,-0.04,-0.03,-0.035,-0.05,-0.055,-0.065,-0.06,3
-0.19,-0.2,-0.18,-0.17,-0.175,-0.18,-0.195,-0.19,-0.19,-0.18,-0.185,-0.19,-0.2,-0.195,-0.185,-0.18,-0.185,-0.185,-0.205,-0.2,4
0.145,0.105,0.07,0.075,0.065,0.075,0.075,0.065,0.045,0.035,0.05,0.05,0.035,0.025,0.005,-0.005,-0.02,-0.05,-0.085,-0.125,3
-0.32,-0.295,-0.25,-0.155,0.11,0.55,0.765,0.485,0.115,-0.06,-0.065,-0.06,-0.07,-0.1,-0.125,-0.125,-0.13,-0.135,-0.145,-0.145,3
-0.295,-0.26,-0.155,0.06,0.495,0.825,0.675,0.225,-0.04,-0.115,-0.075,-0.07,-0.09,-0.11,-0.145,-0.16,-0.15,-0.14,-0.13,-0.135,1
-0.17,-0.145,-0.15,-0.145,-0.155,-0.16,-0.125,-0.11,-0.095,-0.085,-0.08,-0.08,-0.07,-0.07,-0.07,-0.065,-0.09,-0.1,-0.085,-0.095,2
-0.245,-0.225,-0.225,-0.215,-0.235,-0.23,-0.245,-0.25,-0.24,-0.22,-0.215,-0.215,-0.225,-0.22,-0.21,-0.205,-0.195,-0.205,-0.21,-0.205,2
-0.6,-0.61,-0.6,-0.595,-0.595,-0.605,-0.605,-0.61,-0.595,-0.585,-0.575,-0.59,-0.59,-0.595,-0.58,-0.57,-0.565,-0.56,-0.56,-0.55,2
-0.25,-0.25,-0.23,-0.215,-0.215,-0.215,-0.21,-0.205,-0.2,-0.195,-0.205,-0.23,-0.235,-0.255,-0.265,-0.26,-0.26,-0.28,-0.305,-0.32,3
-0.235,-0.225,-0.22,-0.22,-0.215,-0.23,-0.235,-0.23,-0.21,-0.18,-0.17,-0.15,-0.165,-0.14,-0.12,-0.105,-0.105,-0.095,-0.095,-0.095,2
0.02,0.015,0.0,-0.01,-0.02,-0.005,0.015,0.02,0.01,0.005,0.0,0.025,0.03,0.03,0.03,0.015,0.025,0.035,0.045,0.045,2
-0.115,-0.115,-0.12,-0.135,-0.11,-0.1,-0.095,-0.11,-0.105,-0.105,-0.09,-0.095,-0.085,-0.085,-0.08,-0.08,-0.055,-0.045,-0.04,-0.06,2
-0.175,-0.185,-0.195,-0.205,-0.215,-0.25,-0.27,-0.31,-0.34,-0.385,-0.425,-0.485,-0.575,-0.66,-0.735,-0.8,-0.855,-0.915,-0.975,-1.015,3
-0.36,-0.37,-0.38,-0.395,-0.4,-0.395,-0.385,-0.38,-0.39,-0.405,-0.415,-0.405,-0.375,-0.35,-0.35,-0.375,-0.37,-0.365,-0.355,-0.36,1
-0.22,-0.225,-0.21,-0.195,-0.19,-0.185,-0.185,-0.2,-0.18,-0.175,-0.165,-0.165,-0.18,-0.175,-0.16,-0.15,-0.155,-0.165,-0.15,-0.155,2
-0.095,-0.105,-0.105,-0.11,-0.115,-0.13,-0.145,-0.16,-0.165,-0.15,-0.145,-0.175,-0.18,-0.205,-0.2,-0.2,-0.195,-0.195,-0.215,-0.225,1
-0.07,-0.05,-0.055,-0.055,-0.07,-0.055,-0.045,-0.045,-0.04,-0.045,-0.055,-0.05,-0.04,-0.03,-0.025,-0.04,-0.045,-0.045,-0.025,-0.01,4
-0.045,-0.04,-0.03,-0.03,-0.025,-0.035,-0.045,-0.04,-0.03,-0.035,-0.05,-0.055,-0.065,-0.06,-0.06,-0.07,-0.08,-0.095,-0.105,-0.105,3
-0.115,-0.13,-0.135,-0.145,-0.14,-0.145,-0.15,-0.17,-0.185,-0.185,-0.18,-0.18,-0.185,-0.185,-0.205,-0.2,-0.2,-0.19,-0.19,-0.205,1
-0.47,-0.46,-0.455,-0.455,-0.47,-0.49,-0.485,-0.49,-0.48,-0.48,-0.48,-0.46,-0.45,-0.445,-0.45,-0.475,-0.49,-0.51,-0.5,-0.48,0
-0.01,-0.005,0.0,-0.01,-0.01,0.0,0.015,0.0,-0.005,-0.02,-0.01,-0.015,-0.01,-0.005,-0.02,-0.035,-0.04,-0.035,-0.035,-0.045,1
-0.265,-0.255,-0.245,-0.255,-0.265,-0.26,-0.27,-0.255,-0.245,-0.255,-0.265,-0.26,-0.275,-0.265,-0.255,-0.26,-0.27,-0.275,-0.27,-0.265,1
-0.785,-0.85,-0.9,-0.945,-0.97,-0.98,-0.945,-0.93,-0.96,-1.02,-1.07,-1.085,-1.045,-1.0,-0.97,-0.925,-0.885,-0.825,-0.77,-0.705,1
-0.97,-0.975,-0.975,-0.975,-0.965,-0.98,-0.975,-0.96,-0.925,-0.885,-0.845,-0.79,-0.745,-0.71,-0.665,-0.6,-0.56,-0.51,-0.47,-0.44,0
-0.345,-0.36,-0.37,-0.36,-0.35,-0.35,-0.36,-0.37,-0.39,-0.375,-0.355,-0.365,-0.365,-0.375,-0.385,-0.385,-0.38,-0.365,-0.375,-0.385,1
0.07,0.06,0.06,0.08,0.09,0.085,0.08,0.07,0.065,0.065,0.07,0.065,0.05,0.045,0.035,0.025,0.035,0.025,0.005,-0.005,3
-0.04,0.235,0.71,0.875,0.545,0.155,0.005,0.045,0.07,0.065,0.02,0.03,0.045,0.06,0.075,0.1,0.14,0.23,0.315,0.39,2
-0.36,-0.345,-0.345,-0.33,-0.31,-0.3,-0.29,-0.295,-0.3,-0.28,-0.27,-0.265,-0.265,-0.265,-0.26,-0.265,-0.26,-0.255,-0.255,-0.25,2
-0.32,-0.32,-0.35,-0.34,-0.33,-0.335,-0.33,-0.325,-0.305,-0.29,-0.27,-0.245,-0.24,-0.235,-0.23,-0.225,-0.21,-0.21,-0.185,-0.195,2
-0.07,-0.06,-0.055,-0.04,-0.035,-0.045,-0.045,-0.025,-0.025,-0.025,-0.03,-0.045,-0.03,-0.015,0.0,-0.015,-0.01,-0.025,-0.02,-0.005,4
-0.005,-0.02,-0.04,-0.055,-0.06,-0.06,-0.06,-0.055,-0.075,-0.125,-0.125,-0.13,-0.11,-0.105,-0.11,-0.12,-0.12,-0.13,-0.125,-0.145,1
0.09,0.095,0.09,0.08,0.1,0.105,0.105,0.095,0.095,0.09,0.09,0.1,0.095,0.085,0.07,0.065,0.065,0.075,0.065,0.055,1
-0.23,-0.225,-0.24,-0.235,-0.23,-0.22,-0.205,-0.2,-0.21,-0.215,-0.22,-0.19,-0.19,-0.2,-0.2,-0.195,-0.16,-0.12,-0.04,0.14,2
0.065,0.075,0.075,0.065,0.045,0.035,0.05,0.05,0.035,0.025,0.005,-0.005,-0.02,-0.05,-0.085,-0.125,-0.175,-0.205,-0.26,-0.345,3
0.49,0.53,0.585,0.67,0.765,0.865,0.95,1.005,1.0,0.89,0.71,0.52,0.32,0.125,-0.055,-0.23,-0.38,-0.49,-0.555,-0.555,3
-0.36,-0.365,-0.36,-0.355,-0.355,-0.345,-0.36,-0.375,-0.365,-0.36,-0.355,-0.355,-0.37,-0.385,-0.365,-0.365,-0.36,-0.385,-0.385,-0.385,1
0.03,0.05,0.03,0.025,0.01,0.005,0.015,0.0,-0.03,-0.06,-0.065,-0.09,-0.115,-0.16,-0.21,-0.26,-0.3,-0.35,-0.42,-0.49,3
-0.395,-0.395,-0.42,-0.455,-0.46,-0.44,-0.43,-0.425,-0.435,-0.47,-0.47,-0.445,-0.42,-0.4,-0.395,-0.395,-0.4,-0.405,-0.37,-0.29,2
-0.22,-0.22,-0.21,-0.205,-0.215,-0.205,-0.225,-0.215,-0.205,-0.2,-0.205,-0.21,-0.215,-0.22,-0.2,-0.2,-0.21,-0.215,-0.225,-0.22,4
-0.285,-0.32,-0.36,-0.36,-0.36,-0.36,-0.355,-0.355,-0.365,-0.375,-0.37,-0.375,-0.39,-0.385,-0.4,-0.39,-0.38,-0.36,-0.335,-0.33,3
-0.2,-0.195,-0.215,-0.24,-0.23,-0.235,-0.205,-0.205,-0.2,-0.19,-0.185,-0.175,-0.175,-0.2,-0.22,-0.22,-0.2,-0.175,-0.18,-0.2,0
-0.25,-0.25,-0.25,-0.265,-0.25,-0.255,-0.235,-0.245,-0.265,-0.265,-0.265,-0.255,-0.25,-0.265,-0.27,-0.265,-0.255,-0.245,-0.235,-0.25,4
-0.33,-0.38,-0.435,-0.535,-0.625,-0.695,-0.73,-0.775,-0.815,-0.88,-0.945,-0.985,-1.015,-1.015,-1.01,-1.025,-1.035,-1.055,-1.05,-1.04,3
-0.31,-0.28,-0.245,-0.155,0.06,0.505,0.88,0.75,0.315,0.01,-0.07,-0.05,-0.035,-0.065,-0.095,-0.12,-0.125,-0.12,-0.125,-0.115,0
-0.23,-0.235,-0.235,-0.235,-0.23,-0.215,-0.195,-0.205,-0.225,-0.225,-0.235,-0.24,-0.23,-0.215,-0.19,-0.15,-0.14,-0.105,-0.12,-0.155,2
-0.175,-0.175,-0.175,-0.175,-0.14,-0.12,-0.09,-0.03,0.155,0.605,0.91,0.69,0.275,0.075,0.075,0.12,0.12,0.085,0.075,0.07,2
-0.39,-0.39,-0.395,-0.38,-0.355,-0.335,-0.32,-0.32,-0.35,-0.34,-0.33,-0.335,-0.33,-0.325,-0.305,-0.29,-0.27,-0.245,-0.24,-0.235,2
-0.88,-0.88,-0.89,-0.89,-0.875,-0.845,-0.8,-0.77,-0.715,-0.65,-0.61,-0.56,-0.5,-0.44,-0.395,-0.35,-0.32,-0.275,-0.24,-0.24,0
-0.195,-0.18,-0.185,-0.2,-0.235,-0.225,-0.21,-0.22,-0.245,-0.26,-0.24,-0.23,-0.225,-0.245,-0.27,-0.295,-0.315,-0.285,-0.28,-0.26,1
-0.28,-0.275,-0.26,-0.245,-0.26,-0.285,-0.275,-0.275,-0.275,-0.27,-0.265,-0.265,-0.255,-0.245,-0.245,-0.235,-0.245,-0.245,-0.25,-0.25,2
-0.445,-0.46,-0.45,-0.435,-0.435,-0.44,-0.445,-0.445,-0.455,-0.455,-0.44,-0.455,-0.45,-0.465,-0.47,-0.46,-0.46,-0.46,-0.475,-0.48,1
