4539,1.1017468928550163,1.6096431332457937
5992,1.0357070178937706,1.2921981421177244
3700,1.5680424921922795,1.442211754814165
3727,0.9030280760720911,1.5874043374318367
6961,0.9961125170909512,0.0
3391,0.31723365589361874,0.5490527851986525
5753,1.0094412055276045,1.8456722877516436
5821,0.9172128188801171,1.8241329779448765
2586,0.9347665558177441,1.5670697973949685
3889,1.0422307253992817,1.4831329787417162
7190,0.440061028725182,0.5256042627219664
4996,0.2622782159684442,0.5014251915409026
4390,1.0633898178136658,1.1415131426751837
4461,0.12538633892260073,0.2855607289088629
5988,1.2165250529742428,1.600190591829753
2609,0.9022964837485519,1.6362486174486548
6199,0.15166748897470192,0.26494587450077195
7181,0.6423919179185481,0.6231582533454363
5302,0.17208583838375693,0.5582592838750119
6327,0.6605519026476125,1.0710420186594107
3340,0.5847760022322799,0.7320230672728247
7810,0.9743061179774685,1.4089657800222573
3545,1.211434166453744,1.5810102235096457
2273,1.575112796790011,1.6721631705967541
4629,0.8772846223552548,1.6513138771847227
3729,0.7344072058991349,1.5874043374318367
6112,0.9349217582577484,0.9979346983164384
7277,0.9769923796948068,1.2977704537120711
3552,0.9837045916345453,1.50579525892371
7600,0.29507668301354995,0.6848141401065883
4355,0.4592835496270285,1.2921546536192403
6656,0.8716554296949734,1.6568842614830788
6976,0.8360476042770327,2.1337392425491326
2772,0.6600116796230435,0.8125569908581133
3341,0.4821396748281028,0.7482936006460781
7612,0.583613159428839,0.9607343111041072
4030,1.1645646980178708,1.612374558167753
6546,0.7002473044753555,0.9440514924069527
6562,0.5991671034312964,1.0331884401073173
3674,0.9636318233389933,2.133706409155814
4691,0.4366126785632796,1.2430347843014098
6255,0.7085052552622161,0.8744573955501757
4971,0.8839406802566884,1.764293061876522
3373,0.4624326494336789,0.7764470361064739
3817,0.5808441492411468,0.8214947906168348
3968,1.0048321831593612,1.5508517229945162
1657,1.1153515107764973,1.444420998025832
2830,0.37809364037988114,0.8030174088693285
6106,0.951641221747567,1.3659504212497549
7013,1.2803687993289605,1.9113456174344916
6435,1.3681989595494852,1.2159847055362716
3095,0.4704590720390762,0.6181744965220382
3302,0.2073966373982175,0.4629233977612526
6293,1.2031150999063716,0.8795827911902686
2066,0.2977122143906781,0.5403537222033001
5656,0.7097576260467702,0.8533804614477304
7085,0.434223619809791,0.5239689293071002
5774,0.9756425640448617,1.7720142752301224
5754,1.2595307728743466,1.6983353196931117
3959,1.1412656905250955,1.7477210186143397
3915,0.6742935454013741,1.3077377319027101
3028,1.2745231220948066,1.1180986748011046
3397,0.4388689425553179,0.7578720765292549
2481,0.6331210466850276,0.9810775691378728
6563,0.6476521148257885,1.109918406439583
1982,0.9295732281597134,1.985617975400977
7451,0.5349764810225729,0.8514567186722876
6315,0.3307481418303926,0.7540095807060266
1576,0.45880295360682927,0.676613397295414
5695,1.0144256808624905,1.5586109666051091
6712,1.3363730143882824,1.8492361325076723
6627,0.3038064850110745,0.7146327420499017
6483,0.1364616861558042,0.3082966490761841
6163,0.1983693660502211,0.655501892729625
6621,0.3873243725544545,0.68553379049922
2896,1.0765005099706055,1.7744850453279288
5266,0.9426834017480016,0.8469578327996772
4983,0.5032216016472119,1.0802426828891571
3307,0.26325717911249213,0.8054197999744832
5054,0.27967760212722775,0.36575931913026566
3944,0.618344044243765,1.6277123994384959
2824,0.28404073961438847,0.6935219728436995
4687,0.9728266602619637,1.2787534981397908
6165,0.2303454138185476,0.6912866284651098
6724,1.406940309908838,1.607457512231877
6785,0.2132510879379213,0.4055601714507878
4445,0.21728375517822907,0.37364458626602276
4012,0.6274453272877342,1.8494684409950044
6560,1.0574436470780286,1.0331884401073173
3420,0.7229527559851314,1.5776478372382277
6786,0.26738679231844054,0.4055601714507878
5064,0.19757075902957102,0.6283677345673895
4555,0.43284206195162483,0.6003719164020143
4960,1.2701737431817488,1.776687156633647
2351,0.15320047194700537,1.3399511724857747
6129,1.0921490411712689,1.0640752002419485
4743,0.16949290447898885,0.43874778114623936
4028,0.9085592067759749,1.6448281018021382
6211,0.16199362720304147,0.5022477594252127
4726,0.41189699412070907,0.5118283708015379
4668,1.0234988988406575,2.325128287249879
2701,0.10248313244636126,0.3087592216335405
2551,0.9864815287865552,1.4011925074555964
2339,1.2210503777826327,1.608459796029953
4575,0.5369570948151007,0.8984863535514461
5644,1.1369373288808124,1.2451200723305333
1701,0.597643387803864,1.3041864503407692
6799,0.0999292188668885,0.23246899165598528
5134,0.9064852417682898,0.6163852606662784
3650,1.2068748904047122,1.9451116562949962
2639,0.1936086303816523,0.8651907443923118
7091,0.2657065496345873,0.29541939663964506
4891,0.8221093048057027,1.4921255779050728
4207,0.7007674572089609,0.9700754899804889
5156,0.599123559132078,0.7982487569073213
3494,1.1252548653899073,0.9948584365426506
2868,0.9738650377164145,1.8011158676654322
3760,1.1911593896927557,1.8350211602837256
2978,0.17557469020752353,0.2805897741705194
4777,0.6195963101268595,0.9906559783792317
7945,0.43768464177312283,1.3020068505209104
7354,0.35420340832232694,0.6552714359031805
3526,0.3865056119983891,0.4038407665223742
4053,0.8338826236847016,1.8022847626505039
3623,0.5938931559025339,0.7451377531135787
2948,0.31233642752393714,0.5926843666593604
5454,0.37238292388083394,0.5922622787324162
2469,0.4570614967515696,0.9240781885861832
2003,0.6128632730634102,1.8178023019640606
4761,0.15936360952339412,0.4025212466599403
6385,0.9985277214718519,1.7305935080036465
4816,0.6684260203465141,0.8918440777929836
2146,0.6635784215991354,0.8365298770359227
3067,0.3288353335718628,0.8489794568506911
7586,0.8433960787538605,0.8203142289225246
6403,1.2724307429161485,1.8581736158840458
5021,0.1725997355281198,0.4480892259723796
3248,0.18870299270998867,0.45652828099105436
6486,0.2202828670867897,0.37909596811477037
7408,0.6359703519218931,0.5518152249625188
1548,1.197769764908968,1.407370847585709
6201,0.07020694600415524,0.26494587450077195
4406,0.11081439621730677,0.5459068977123205
2377,0.3720352189815973,0.657189932854066
6247,0.6729181095333441,0.869669325803066
6941,0.837839109208739,1.881748124495816
2068,0.2470628836092532,0.5363322072121998
6048,1.1877220063169456,1.8572596177098828
5922,1.3264983432059645,1.8857531823490685
7043,0.37724438081748546,0.39221649899766
3354,0.4119703002556073,0.8579763761345353
2154,0.7918637108355545,0.8400485378075897
7510,0.9569414013354508,0.8737491390280178
5402,0.4390484339797034,0.9708915084261711
5241,0.9233953961182495,1.3467134728791124
3858,1.0390817478810832,2.162725698359025
7908,0.9536158641884429,1.473653530972627
4179,0.28508340945353694,0.5626258603346473
7812,0.9890285397484772,1.4089657800222573
3376,0.3143458834064835,0.7155837638346828
2223,0.34792606803981785,0.6761818882737808
3051,0.7686937446249412,0.7721972754278125
3812,0.5728458725356386,0.790559061828303
6414,0.7531616183119297,1.8118232991408905
3334,0.6490942284852929,0.6461227625606909
7676,0.7093647331175342,1.5620401857568262
7323,0.13184326939466784,0.8886825517826792
4733,0.20578298581927215,0.3876483239887705
4359,0.7618764563485533,1.2921546536192403
6250,0.6533517730414461,0.869669325803066
7721,0.9255634754437589,1.0658986339241376
7501,0.7045157623921048,1.1751746532499219
3805,0.17913545052817728,0.7511989897016808
3110,0.448902771368613,0.8761225522549635
6520,0.3025356882083372,0.5384657321225407
3903,0.7347099055674418,1.3619453628142633
3011,0.27091370179641,0.5774461011160135
4047,0.9870131382713908,1.8747196878598567
6933,1.5018785229652765,2.292600436887813
3195,0.8317503826901468,1.3756868213777544
7087,0.5401788852226038,0.5012536387445621
6535,0.9964157230715605,1.1743668487867414
4739,0.19466978320540987,0.3876483239887705
5008,0.3064892943367778,0.6297596570369268
3070,0.37046775816534006,0.9592973616268496
2763,0.5482339524294442,0.8191544945715293
1573,0.4060407520467487,0.676613397295414
7453,0.6359703519218931,0.9909854130962072
3725,1.2355817793115316,1.5874043374318367
5336,0.12495884704840067,0.42307258676926474
5782,1.01112819482711,1.2307856967452686
5549,0.4109332611492817,0.462458947341154
6357,1.11736910705479,1.641312786725046
2723,0.19613323382114364,0.5054521945663244
2439,1.2445474458515848,0.842513305914433
6863,0.4689978231300331,0.7561549666634024
2532,0.5905810462682913,0.7857426972707695
4640,0.802405050108982,1.4161466902223827
5328,0.10248313244636126,0.3418585242475129
4305,0.803285199706463,1.6909519178998902
3867,0.7774275493859829,1.4195003613961248
2982,0.18368499202973138,0.4035499301914989
4554,0.6907647683763127,0.661610585488498
3223,0.1367118515627492,0.9292092359797647
4368,0.7828268571968325,1.8600733395425753
5831,1.0193753955050149,0.9571429800598203
5350,0.22082334037743007,0.5130700902327334
4122,0.27513000566719126,0.5778580112339842
7595,0.6558765032728927,0.6008404824177043
3783,0.8719338811431662,0.9831959947191804
4697,0.16291692176556444,0.848725739684692
4843,1.0869165485713361,0.806253373415211
6195,0.2446612761075223,0.43482945710113996
5018,0.23065706481059448,0.49400336646288756
4119,0.3088265144495887,0.5462791747831424
2373,0.3016326846577913,0.6413085836713549
4144,0.17705620943035935,0.382080509768434
7512,0.8417852054877784,0.8737491390280178
4874,0.3978145320463306,0.40511295363355854
6047,1.0459465375049661,1.8572596177098828
6533,0.5697575501913412,1.5229068781091966
7151,0.9047186344733446,1.1839938866856197
6136,0.24945412053197655,0.86178024428789
3885,1.0389193447108362,1.459878213498934
4759,0.1464329596938818,0.3195946440563622
5886,0.26343162049995056,0.7063409947686853
3024,0.8291489683387221,1.1180986748011046
2707,0.13932354099605745,0.27009492534612234
4160,0.0999292188668885,0.2982993610058462
4665,1.31138712683743,2.1127556515913604
7461,0.5477392793733916,1.7054067110531852
7261,1.0644688628089238,1.7725371654274347
3108,0.614951767614696,0.8354384466609289
2589,0.6686143658325178,1.5670697973949685
2990,0.138407782277791,0.34839177263922394
3987,1.1994835177968115,1.615179839078684
5361,0.9281234614359021,1.0910894511798195
2376,0.34742045466203536,0.657189932854066
7560,1.0703039023034984,1.2830998591127785
5640,0.9721443414708261,2.0423545505775227
4903,0.781897374699032,1.661439805788349
4195,0.606071292013777,1.220957685238321
5768,1.0936354981452192,1.4753313689043017
4393,0.9810956547047864,0.9044429551860897
6179,0.09564832280716293,0.2490137021180479
7210,0.3718116164803035,1.086585853521956
6425,1.233920124846598,1.8939018546320214
2552,0.7071523089842275,1.4011925074555964
4009,1.1652028614193612,1.8494684409950044
3537,0.45447863233579283,1.357503180790824
3620,0.460673874827127,0.8098932475859194
3412,0.6572179340505447,1.274160731239206
7030,0.1846357672718489,1.2064102598926385
2271,1.433628637079556,1.6721631705967541
7911,1.1132974088643222,0.6240770139563292
6639,0.5677294011126505,1.637783220839487
6142,0.18928447152546968,0.5756435225013204
4346,0.932843202600423,1.6991476399831025
5570,0.3207215920500274,0.39528232953006304
2871,0.888857500432326,1.8011158676654322
4354,0.5504564384316547,1.2921546536192403
4313,0.7248587294046298,1.7688957960430607
2932,0.20763035965692195,1.0863794059229486
2543,1.0006863142190727,1.4011925074555964
2910,1.082034853989701,1.747837750286423
7167,0.9340541222508386,1.241495647490095
3820,0.9755921474167782,1.615885968797903
5347,0.16531460413637625,0.45668613390236823
4820,0.44284476828160296,0.8918440777929836
7637,0.44844766733309105,1.7694639357373572
6176,0.12226537165972717,0.24244241048286747
6760,0.26122965551861965,0.6125832621695114
2585,1.1523924744478249,1.5670697973949685
4745,0.23713721291471715,0.4613208248675737
7964,1.14235513590456,1.5579353123382758
6630,0.633847459918681,0.8780337485888526
3059,0.4744801059202824,0.721525284576385
6272,0.9211766430835839,1.1427579601289077
7138,0.5856758189808821,0.9332455196420855
7709,0.3612764489741475,1.0606326650652669
3586,0.7631907313683245,1.5035827024833943
4015,1.1890401897529193,1.8494684409950044
6673,0.5524910256910432,1.2170063401951254
5765,0.9730712430050765,1.4753313689043017
6131,0.3452178610226094,1.0640752002419485
2993,0.1481913522754024,0.32152303096063317
2016,1.1403579898360092,1.2374534156241264
2821,0.3098716990686676,0.6813112657820422
6617,0.412939628114191,0.6779105919812982
6710,1.1676949972321307,1.8492361325076723
5902,0.651149320089401,1.6998264172616184
3349,0.3901397349071694,0.7215448963682077
6646,1.0101525445522108,1.7798212817312766
5252,0.9172128188801171,1.2379136256669887
5051,0.2081126512289559,0.47314023324571897
4799,1.1760106112778572,1.5270967174872587
3689,1.0266248056549727,1.8399963156087322
3952,0.8259952674873932,1.7002732474545343
4762,0.14466866567920914,0.48969624047339133
5601,0.597538155702054,1.5202604548200636
2403,0.423365320493963,0.3411106455073786
4468,0.20996064142331683,0.31157724610122217
7540,0.8668051404645615,1.9713699491850363
7094,0.12191346145164876,0.0
7207,0.43642795793198236,0.5879985085047161
3924,0.467273748308959,1.3899407409859865
3265,0.19634495070663266,0.49209918408290626
5298,0.28024831167744163,0.5582592838750119
2353,0.15995316285695654,1.1670217402148721
5259,0.8309533140621933,1.9115590305403067
5703,0.9369870138054002,1.6344294227707379
5283,0.3259775228931407,0.3509218845332379
5556,0.3666582520808344,0.9653319329173651
6544,0.6353078202060072,0.9440514924069527
6313,0.25507007026902573,0.6160130915976796
6611,0.5651064131801925,0.7172159830244949
3715,1.0794265922716797,1.9285758730727902
3606,0.5156636270469048,1.1617993753216282
7766,0.7063974773855959,1.3340817401424592
5885,0.1808839499222525,0.6045510274246352
3900,0.7998808043592628,1.3619453628142633
5239,0.9290916218863894,1.3467134728791124
2546,0.7618699459255724,1.25719964895467
5961,0.7781779138665815,1.115865432998957
6154,0.13079513631336648,0.6210706582866188
6028,1.0424777600621264,1.320068716580494
7751,1.050047400629568,1.3824935097470181
6342,1.2379136256669845,1.6516235474193959
3755,0.7847927005481946,1.6836971051409801
6332,0.6195248920111809,1.267998241216527
4857,0.2700180202185363,0.7320813095210305
2650,0.07567061527174457,0.6627235371437175
7723,0.7264777851135075,1.173380093776883
2262,1.0858499075410277,2.170642636292802
2331,1.526163413316223,2.289981623789637
7719,0.5233046142053935,0.9823461125109026
2832,0.6846032302507343,0.8755904764433614
5499,0.5522423273669327,1.0259783520851569
5327,0.12767356341277758,0.35420257843849373
5412,0.49755481210098307,1.285291897965311
5948,1.2091034719141,1.0249430213033917
7962,0.7818904663798385,2.055841273611721
5080,0.8725939529672903,1.002641599627506
2762,0.47572508604325675,0.884671709684718
7482,0.5651353177066182,1.010374331374751
2126,0.26773201508494904,0.45779107564593063
7669,0.684773198615713,2.1161474626551984
7074,0.113884413552766,0.4877560117491797
4052,0.9360648116875411,1.8022847626505039
5758,1.0570337582302551,1.6593458412377706
6946,1.2905080624453937,1.8916386749883127
4553,0.8496626095613109,0.7299182034896873
5760,0.7501488287148732,1.6593458412377706
4097,0.12165899035529974,0.7262064805178523
7279,0.6918613446906228,1.3888644140166688
4949,1.0827763644852633,1.737087978123842
5035,0.4538890507444238,0.46028850863580345
3365,1.0104772891377292,0.958247701662829
4244,0.7077195538998023,0.9178072300107832
5306,0.31536906081165283,0.44538100150515847
6879,0.881497035879233,1.2927906438463148
2243,0.5334361652083353,1.2732470397261444
5042,0.09820799407338811,0.2743541905427157
6374,1.1309627750791573,1.946411983691174
2405,0.20244250057942964,0.332422118379678
3244,0.2580003789081708,0.42129641075440943
3625,0.569377541235648,0.7543682855602828
6363,0.9204843231689344,1.9885225273750018
6012,1.0206207261596565,1.743958950987135
6244,0.8010022103518565,0.869669325803066
4912,1.2820553033395112,1.7445806756907463
6456,0.30562116704249664,0.4075566332088904
7093,0.13841795524291658,0.0
7040,0.17483549570274468,0.636208067322306
6046,0.8973326366809387,1.8572596177098828
7858,0.724710404006118,1.506809501365021
1543,0.8348297146261117,1.4519602067408268
4311,0.9679304676557369,1.7626561888613859
7384,0.13737073671489963,0.3123102892137509
7921,0.24132671204979128,0.6680318237923671
3604,1.0536890897157416,1.1167382000352593
6506,0.16841952547293856,0.28357873074269146
4837,1.1608303266605529,0.8183363085163469
5359,0.7432475761602135,1.1466795459649217
4025,0.8702421092926681,1.754298695900926
4624,0.779112294351236,1.5143182855167847
3793,0.3536962786040779,0.7343065346450359
6203,0.09410934858438594,0.31560570023293694
7311,1.679438245519263,1.2171563117075777
5525,1.0516621563801476,1.9369799520860898
7090,0.2925431711395857,0.3775838580407
3132,0.8587998916876951,1.2695529556048868
7183,0.37200021006623285,0.6231582533454363
5546,0.7949811392416237,0.462458947341154
4229,0.7458241266277754,1.3823980267773985
4552,0.8053369648828953,0.7545445480912819
3513,0.19925572334872174,0.6338115472307932
2014,1.1463897441957451,1.2374534156241264
4132,0.24004010229777462,0.24688961389214953
5946,0.7097819222257133,1.1488591051094441
7436,0.6014684993996058,0.8263975219341695
6978,1.3381756713774517,2.1337392425491326
5993,0.9110267175752331,1.2921981421177244
6458,0.17589744724038767,0.4075566332088904
5145,0.37191699720504867,0.7342380590397886
5788,0.4887960962175053,1.537146160469681
3572,1.1719352361284257,1.844378705493448
7527,0.7064510561952456,1.6441124428803133
6236,0.8170332931941962,0.9908739681842691
3502,0.5560191380629642,0.963916560542831
6018,0.5695584965412025,2.093345696723566
4279,0.6408398586450157,0.9804396744722498
4887,0.5259779136850059,1.3169949929159088
4460,0.12098757293764062,0.2855607289088629
4783,0.7956060407064828,1.3005744026999102
5047,0.1097846995838664,0.31723614167047365
2072,0.156334215866869,0.5330646690956956
2457,0.9751755480493368,0.9424979956941311
2904,1.4664955300565365,2.1194891560449403
3713,0.8112187031796495,1.7572150375003508
7910,1.2289785003078417,0.6240770139563292
6245,0.7892399944776689,0.869669325803066
6922,0.613514452742272,1.930842594714999
7729,0.6756560782722646,1.173380093776883
6360,1.110467317690079,1.681022794371811
6532,0.647831837129289,1.5229068781091966
2894,0.940260122305465,1.545916926728035
5285,0.22797575963683275,0.3509218845332379
5085,0.9402598447345006,0.757497075009614
4278,0.6907647683763127,0.9804396744722498
7329,0.14769143248485714,0.7771292411824633
4530,0.6127049201851585,0.6616428302242674
5590,1.0416355569144575,1.3798327423986896
4327,0.9931325098404881,1.2378476491825332
2336,1.1203059045177495,2.325132314935001
6693,0.6349750337709451,1.8915195168524779
5329,0.12241129086679904,0.3418585242475129
3073,0.5895158674945126,0.9946552481365881
3884,1.1944994139809184,1.3845790132244344
3810,0.7629429991341581,0.790559061828303
4686,1.01395441556604,1.2787534981397908
4988,0.0873214918429129,1.1912638443479209
3080,0.708227608092472,0.7151761832678345
5975,0.7949438362262309,1.9566188508434679
5287,0.16289672075288136,0.3509218845332379
6911,0.4980751056962909,1.0434900189689982
6285,0.9540516780713051,1.9255151268650417
7415,0.4868013394584499,0.8737902749724145
5096,0.47030023083887085,0.6030082171068686
2623,1.288505058124239,1.1552604600890182
3187,1.2702796138780337,1.6470290883624206
7860,1.3167120051877526,1.353746753637888
4219,0.24503904863383125,0.9394579698293208
3186,1.2572032136209668,1.6470290883624206
7526,0.5105683811320343,1.4807299022228158
5685,0.7107691938012127,1.6776117883300088
3923,0.9078630146099954,1.3899407409859865
7539,0.6128632730634102,1.950085704790929
2539,0.9201349626546843,1.4077018691144343
6860,0.9096025470588343,0.7561549666634024
2230,0.3630838143030105,0.7464702415206944
3956,0.8743611960674241,1.731311906513273
4175,0.24977117991546366,0.42197065446830334
7214,0.8522845772969477,1.527414318367261
1985,1.0961944249478177,1.985617975400977
4756,0.14435298847977981,0.3010692866191313
5071,0.7400965514125171,1.1182181957508333
5392,0.6547434064569583,0.9284735478253403
4457,0.1501380262068552,0.38421128936476495
7455,0.530785746564877,1.087115427488102
5131,1.1382483948345852,0.7700320701002824
3074,0.8326184346054771,0.9869926951254623
5366,0.7023139394250555,1.0620736120168393
7564,1.5080953368299614,1.2830998591127785
5986,1.2239066860205092,1.6603862348596592
3120,1.1654804600958284,1.3022117940632538
5577,0.16312289692047557,0.6574755376131736
4576,0.5058981619155366,1.1086496206675132
2818,0.36129961316769904,0.6693026509007073
3203,1.111031319704959,1.6260682627547027
4043,0.6868673601357207,1.751915230808802
4547,0.796136188351871,1.1160999700744145
6026,1.0115320647835437,1.320068716580494
5968,0.7198219808502798,1.1980502635349597
3106,0.3984138253971352,0.7142707787942596
7780,1.1583771639850236,1.274373351554993
2256,1.8172460307975054,1.9617703581854402
4702,0.15594402587335904,0.715756701739754
7443,0.627388610426056,0.7064451332119999
5513,0.7708354902139285,1.5684177206241694
4294,0.8295363246848891,1.4265164044768708
2823,0.23963441882176173,0.6827205246186221
5407,0.5238195953119616,0.9942232005531725
7272,1.0972383249309263,1.2977704537120711
7355,0.35297943112653696,0.6552714359031805
6008,0.8689021964596915,1.6660802505178336
3301,0.28476762109496734,0.4629233977612526
4440,0.2023751407580033,0.37364458626602276
5370,0.5559766838069727,1.0498073283115956
5243,1.0693289041738472,1.4350912383813237
4953,0.8908213919051504,1.8424249851892947
4854,0.4509921812780797,0.676771919470621
5078,0.8339807443155532,1.081161676685014
4251,0.44191937980103657,0.8267558226556148
2153,0.894982822704524,0.8400485378075897
4011,0.831188685420858,1.8494684409950044
7774,0.6546721637379546,1.8233636601519068
4869,0.3104506393006696,0.40511295363355854
4696,0.15995316285695654,1.197169666117875
3766,1.0978218643982618,1.7117721017226781
2083,0.33700406916482045,0.4959456669992864
6409,0.8065247618220408,1.74562507336732
4911,1.0791560884129445,1.7730261101092817
4717,0.3364041927032449,0.63863435107314
4400,0.13717950151542382,1.1400966739554004
6647,0.9449111825230685,1.7798212817312766
5007,0.2700180202185363,0.6250339111797742
2288,0.9763696832161939,1.3649519212227554
5508,1.174238544628255,1.6760418779591417
7016,0.7431379147840943,1.9797461847050468
7465,1.6949994774177595,1.394613976215308
3233,0.29522870134427487,0.5674854295468731
5845,0.19917815656484233,0.6924239278154418
3865,0.6674025418980305,1.4195003613961248
5343,0.22686760248461477,0.45668613390236823
6930,1.2655573228873451,2.0799271621938638
6596,0.9082594902474936,1.5155887470516947
3166,1.0604287803946668,1.4885786884489254
3264,0.16194499160406142,0.49209918408290626
2156,0.9097071956116881,0.864426763660521
7793,0.8072431845875788,1.154528381468393
3767,1.3288875374806717,1.7117721017226781
7048,0.22724293795593023,0.3500456634875642
6579,0.6095177895965393,1.0278152748256624
4410,0.14896827676530877,0.5459068977123205
3696,1.1021660334583525,1.9067792064799978
7385,0.13609837836068056,0.3123102892137509
2922,1.0286548489866973,1.367194908330938
4256,0.5021035392755052,0.6639616446138707
6906,0.4611149555762817,0.8612247037041182
7805,0.7984633195552234,1.4089657800222573
3958,0.8976804331511363,1.7477210186143397
6823,0.40219066027476136,1.0595657563421392
7927,0.35862877279739425,0.736690385226733
5794,1.025766906216768,1.5017231184879913
2423,0.36293104075439764,0.47344392083570186
5980,1.0019181894766467,2.0313567913803157
5248,0.8001776137614293,1.4540462888251162
5949,1.233715408674793,1.0107032054974465
5661,0.7474967261531624,0.8390037834580027
7782,0.9845067316556712,1.274373351554993
3224,0.15119530975644102,1.0431981124888186
3136,1.1706657918270285,1.2366407820384744
6891,0.6939036022307612,0.8057781427030596
4673,1.7039206055587004,1.713465154093136
7034,0.10032467294494518,1.197183687353007
2724,0.24267392309370192,0.5054521945663244
4649,0.7910513717740066,1.7213931973621615
4721,0.23764697463098683,0.7023989368375145
5833,0.8438403608030584,0.9571429800598203
6269,0.4813844725754698,0.9813260467626057
7390,0.3128566091694517,0.3123102892137509
6455,0.2725279396249322,0.4075566332088904
7634,0.4611924648380618,1.293605759721811
2974,0.15450285431555716,0.23943109763282897
5547,0.5391201036318193,0.462458947341154
2177,0.6907551045168763,0.8919187570794087
6965,0.9775829232437763,0.0
3430,1.4261345175025852,1.279596512436229
7724,0.5159833467103894,1.173380093776883
4414,0.19155325525844127,0.5475673542700422
2090,0.205905259411201,0.26141489151226616
4204,0.7282595514290213,1.0191916161094072
6670,0.7511797375050528,1.2170063401951254
7309,1.5339299776947413,1.2171563117075777
2379,0.3338088855468913,0.6816591851496103
3931,1.1459553515404473,2.186812939255356
4738,0.2180689365299618,0.3876483239887705
5699,0.9275723748469783,1.6308473439033366
2789,0.5175585400321179,1.6856924068432433
4925,0.923367979597434,1.6349808823771121
5631,0.7873090153595642,1.9099167803540527
5808,1.0395003996088468,1.5493139661829456
3021,0.9485209081801853,1.2473590315162977
2108,0.3357951406519405,0.3685137549533209
3524,0.260233375659482,0.5482554530517096
3090,0.6029239252637993,0.6712314603077825
7912,0.662155032159417,0.6240770139563292
7144,0.5265272268790766,1.0162446605987974
6499,0.18838661198325996,0.4102953938983978
2209,1.1280158205537807,0.8798528653580182
5300,0.13488760503395425,0.5582592838750119
5210,0.9085613195690789,2.1570896996876225
7730,0.49132122322511557,1.7473444721177847
2424,0.361648038909997,0.47344392083570186
6842,0.7045077682248407,1.0381927646216755
6797,0.11467223370874023,0.2582709880119317
7439,0.6212314621699935,0.8031234285183321
3702,1.145196668627737,1.335692162614619
2842,0.5337654427790981,1.198555576332299
7217,0.9793979909871386,1.527414318367261
5413,0.515515107660663,1.4463639245050885
6237,0.704644842583809,0.9908739681842691
4907,0.9355654333995853,1.7445806756907463
2783,0.5161303938597414,0.8865328602335477
3055,0.24503904863383125,0.7045717951251316
3583,1.0308014995544885,1.5035827024833943
2928,0.5929640111860498,1.0863794059229486
2226,0.40614398792288825,0.6761818882737808
3310,0.5607864783967959,0.8369313510478276
3733,0.6690255675416499,1.8093671611393523
5569,0.3757490378813602,0.39528232953006304
3280,0.18414382962701167,0.4087872807692981
7121,0.275062284307687,0.8025503277452338
6321,0.34581618886553783,0.9795731467673409
6328,0.6804407341032697,1.0969999466673235
4688,0.5499020673742426,1.2430347843014098
7686,0.5644602454690199,1.1953682898233764
2399,0.1556930297067839,0.39648241021570274
6058,1.2828829221462674,1.6512125418126795
5331,0.12291294893280535,0.3418585242475129
3396,0.44672427168432455,0.7578720765292549
2528,0.41532573923266336,0.702241308283866
6094,0.9952113652544446,1.8431525929007655
3670,0.8567058140158462,2.0803226685155427
7922,0.27373515978922136,0.736690385226733
4532,0.6123994397701452,0.6616428302242674
4395,0.36961595764824945,0.9044429551860897
2678,0.31210910922716045,0.423176481232186
4247,0.814261153805149,0.9059870000531782
7807,0.8598014174364021,1.4089657800222573
3874,1.042353247440288,1.4741217137113891
7140,0.5967996655534178,1.009297175801844
2568,1.0367882615605237,1.8730793638909164
2911,1.2271256203875154,1.692107989455986
2480,0.6245312000871853,0.9810775691378728
1574,0.43217999965366344,0.676613397295414
3898,0.9682458365518541,1.3619453628142633
5784,1.2475628388430224,1.2307856967452686
7096,0.10481957342979283,0.0
7696,1.6246311961763433,1.3875800954490305
3271,0.16474321428666447,0.46616447333429817
7338,0.3327616946507481,0.5508013002532024
6083,0.7226892346472173,1.314047948758636
7368,0.2131097505174356,0.40589055085899395
6092,0.5695584965412023,1.7329434064688196
6069,1.05157547213763,1.6864697981363654
4782,0.7779161704030738,1.2767905463387335
7931,0.26124690512710524,1.5149275384538141
6873,0.8382459817160723,1.0502375335669722
6986,0.9482910198003316,1.90608686230126
3990,1.025978352085154,1.456374245476436
5240,0.9748840726991375,1.3467134728791124
5278,0.14769143248485714,0.7947889868624894
7611,0.34256521915616867,0.9607343111041072
6832,0.9426834017480016,1.234871541281592
3300,0.18686592198178564,0.4629233977612526
3254,0.25287917206581656,0.7469853366320056
1791,0.995804662806234,0.7531952103127681
5087,0.4174306419751016,0.757497075009614
3498,0.6886620130136457,0.8769038653716578
3737,1.0619884881071833,1.503730071191641
6909,0.47321127806336993,0.934783116173942
4626,1.0459465375049661,1.5254557008943423
5884,0.1612201644029386,0.5747951413319479
4463,0.11418211846029001,0.2855607289088629
3316,0.8359476995889568,0.8092813582490594
6510,0.16688223010484043,0.28357873074269146
6898,0.44423948092743104,0.7161815430525966
4051,1.1458343309369508,1.8022847626505039
7955,0.7063974773855959,2.03421978916351
2608,0.788947058126169,1.5950104416399467
7717,0.5932659314622167,1.1354463550023006
2129,0.21773413031772887,0.45779107564593063
5606,0.8595346423496423,1.1643818867108227
6300,0.967196240450818,0.7215206432275534
3438,0.8337254251422516,1.0670294982393267
3933,1.1365355542746094,2.2020619527275205
5979,1.4411446777184638,2.1757963260945146
6134,0.20803132751302117,1.0640752002419485
6335,0.9979684837126914,1.9530479917021348
4643,1.0293385914592819,1.7217986109438543
3086,0.6290440759285869,0.6508207340941314
6534,0.7363885301430669,1.5341228040233919
4694,0.16165699178955173,1.2430347843014098
6936,1.552522750961807,1.881748124495816
2717,0.30151276070751426,0.4010098179637609
3957,0.8307564159189992,1.731311906513273
6501,0.14554361043568836,0.40899308785204574
2522,0.41447987128400765,0.5851401099266496
5555,0.3098688794183558,0.856997684452372
5909,0.8933173790724914,1.4156238602995284
5160,0.5407973502969652,0.7982487569073213
3723,1.2886592111609485,1.6056058877590795
4328,0.932890770076421,1.2378476491825332
4885,0.8234703461259781,1.0703094598587373
4773,0.25421952610042164,0.6815037565451022
7577,0.29212052617655704,1.6244486862420549
6413,0.6674437118994466,1.74562507336732
6397,0.9456359907967773,2.339943597357499
7289,0.8643187741937527,1.675110396398478
7658,0.6178293101472917,1.457108786699929
4662,0.9708325532154127,1.383870356786681
6638,0.6737464008970854,1.6066168988031237
2941,0.22227574465166927,0.5466656587945338
7036,0.09929898771613903,0.8191977430551529
1959,0.7969211184069066,1.8710536529757589
5423,0.8991437235916878,1.3633806636142964
3222,0.12884041622212394,0.9292092359797647
5628,0.6225081726563695,1.1878673111341465
5937,0.8057632952137126,1.6093754454607148
3792,0.3068981068526624,0.7343065346450359
3235,0.2827403031930434,0.5674854295468731
2338,1.350032947064062,1.608459796029953
3935,1.0613123732006915,1.883410178672284
2472,0.4944366978094839,0.9240781885861832
3651,0.9562014065574574,1.9451116562949962
4312,0.8112187031796505,1.7688957960430607
3113,0.7594817126670391,1.056894985993824
7583,0.7366436891770091,0.8203142289225246
2566,0.8218266657074612,1.8445175882646536
5561,0.3045476306578389,1.3752476614503624
3649,1.56679487472254,1.9451116562949962
4270,0.4178059429508127,0.6196526638841571
3555,1.067739795644778,1.6217795989962707
7273,1.189367242283839,1.2977704537120711
7299,0.7571744563493881,1.6613594924564006
2775,0.6906745658930786,0.8148333703711808
5582,0.5083315740394838,1.5527554310961815
1655,1.1944994139809184,1.444420998025832
4788,0.8635447796820446,1.3441272565875353
3597,0.7397089722023716,1.1167382000352593
6452,0.3542554699664491,0.4075566332088904
6277,0.6672509691295155,1.1427579601289077
5625,0.722787639208965,1.0701661664334647
4937,1.11557358375415,1.4240972540473726
7131,0.4271520785761989,0.5050886799562662
2167,0.5439234163737242,1.060305190161405
6924,1.4491607134652522,2.031509960602843
3417,0.7570676391870164,1.3155346209268155
6687,0.4681435604818877,1.8174022972637935
2465,0.5342961948991294,0.8890794213308282
6090,0.703393927908159,1.5057517371642126
2632,1.607332014252846,1.1735351980572837
7974,0.470906998953775,1.4176647906781643
4408,0.1883858228372074,0.5459068977123205
6478,0.18487871142152723,0.3082966490761841
7216,0.917352263897852,1.527414318367261
5286,0.22226153570878124,0.3509218845332379
2155,0.8275492871240443,0.8483160849052003
4220,0.3317101743679621,0.9644097644402825
5393,0.4174306419751016,0.9284735478253403
5984,1.2229192373805131,1.6603862348596592
3772,0.6149199224909644,1.7828083082021005
4360,0.9474037282144125,1.3407674767746536
3653,1.2448330119595348,1.6407065121339375
4810,1.1261737423837566,0.9304842103979158
3847,0.19634502200790993,0.39894801013218995
2004,0.7548969057556656,1.8178023019640606
7626,0.35723446856656826,0.9562390323558191
2441,0.5928410159605346,0.842513305914433
3896,1.1769934528138242,1.374991489385961
5233,0.9906578103880849,1.377996974203015
5272,0.117998624344756,0.8469578327996772
5801,0.8619002277112255,1.855458597733098
4571,0.3537503799943882,0.7433428101657735
5138,0.396516142283676,0.6032779348916926
2964,0.3832198191498202,0.6103258330841116
6571,0.7080728436507582,1.0278152748256624
3351,0.4248890144822238,0.7915539722794073
3495,1.4556143650094657,0.9948584365426506
6318,0.4648937286735463,0.7892261234309611
4985,0.09566884076259731,1.0802426828891571
5123,0.8790543463864947,1.8406525645106449
7135,0.42602161312847875,0.9147824164494198
2464,0.5681658882685102,0.8890794213308282
6992,1.189261740387586,2.362182186034645
2912,1.3200687165804905,1.692107989455986
5115,0.7772606033718181,1.759805360098531
6095,1.1645906790599776,1.7817416127495014
3684,0.9326220144253712,1.8399963156087322
6874,0.5251559954293407,1.0502375335669722
5957,0.31359384538795504,1.0107032054974465
2392,0.17178438388563982,0.33816099548795103
6249,0.5487029760933274,0.869669325803066
7387,0.1763228308856042,0.3123102892137509
5068,0.5933595374687102,1.1182181957508333
4980,0.9028986347487199,1.0802426828891571
2827,0.3551913345146172,0.6941734437763842
2446,0.4911028358432049,1.498754419274247
3827,1.4848803251265115,1.1884667152797208
6073,1.3495597386775944,1.5952391471850917
7549,1.6949994774177595,2.3915105010198885
5142,0.4624326494336789,0.6690913856248283
5436,0.5407973502969652,0.9881873537165753
3984,1.1074355226186687,1.6750260069089196
7811,0.9759305533949542,1.4089657800222573
5451,0.3038064850110745,0.5931366305872913
2959,0.21864374214276777,0.562157728682879
3133,0.7876603995747158,1.2366407820384744
7366,0.2338747650126325,0.41778845550743476
7020,1.1203540608758364,1.6673802965864482
2437,1.0971730417254073,0.842513305914433
5446,0.7341930153259206,0.641110386005231
4855,0.403396054400906,0.676771919470621
7973,0.9357701185087436,1.4176647906781643
5934,0.8286829849792835,1.6591273697908862
5238,1.035094491458462,1.3467134728791124
2613,0.7077195538998023,1.6794355372347967
1575,0.4660838769059899,0.676613397295414
4868,0.32978058359816,0.40511295363355854
2325,1.2812574458141326,2.3938649330478423
7791,1.1099742798579384,1.2785753146166186
6303,0.7894072644943613,0.6493847608236395
4104,0.35231755091982464,0.5864565601471824
5290,0.1272992576185748,0.4524212873475648
2782,0.6511493200894019,0.8865328602335477
6959,0.8125103304443204,0.0
3173,0.6987806813638268,1.5593338655694762
5595,0.831725140605257,1.4833646250032593
6556,0.6787747457716472,1.0331884401073173
2326,1.171489386656154,2.4083147726857814
5447,0.7087342795176959,0.6093480600321545
7153,1.0230548181186785,0.8137089791885115
3655,1.3936734011314191,1.3942438154924393
2937,0.2705998161350125,0.7214160486829657
3091,0.4509921812780797,0.6508207340941314
4242,1.0493496483484974,0.9178072300107832
2788,0.5858451186948298,1.468070087763
4430,0.19994345216674894,0.4382834291116475
6444,0.11398879169505031,0.9304580629485332
6283,0.9964157230715605,1.9255151268650417
7532,1.2219900951484575,1.9713699491850363
2285,1.1177167113267639,1.5819570737253075
6057,1.0823806976216273,1.6512125418126795
5926,1.0816440605328463,1.8823568286424552
4154,0.23683116896888284,0.32784704802541914
5133,0.875690900619299,0.6690913856248283
3119,1.0009552241631052,1.316942388929132
6779,0.1632234507479596,0.44320520973751715
2698,0.28895536998590526,0.43229905983929384
6135,0.24434953177661867,1.1886971010317735
4883,0.6837463521542162,1.0703094598587177
6365,1.3618375782722314,2.018578096597986
7111,0.8814624908154706,0.476610044401382
2529,0.40328405595867656,0.7226585263916713
7651,0.8117205346937977,1.3057061916719677
2583,0.7096494445529817,1.5670697973949685
3642,0.7480335951281006,1.8532629974297719
3130,0.7631907313683245,1.3051022120652243
5244,0.6494606696132799,1.640997016156388
2806,0.4513453773589815,0.6874210510685569
2642,0.10436517585965659,0.8651907443923118
1546,0.9842236002261724,1.4472201659743322
7949,0.44494138989547216,1.3020068505209104
6705,0.671400635956633,2.1466084318535117
5058,0.19569116559460867,0.36575931913026566
6720,1.059820986694751,2.3198118858120944
6337,0.8152081496591432,1.9651609617878338
6848,0.6620083532566767,1.0047696346944044
7414,0.3231989316953069,0.7579592108991111
5629,0.4870235015391618,1.256006460024277
7594,1.0574436470780286,0.6008404824177043
5264,1.3104744073238614,1.129613567690047
1598,1.3197776414195619,1.5820499645160924
7664,1.1774471596280975,1.2209597441706117
3937,0.9449602421775769,1.7239858339053225
4950,1.2668402811701547,1.7940621139692534
6148,0.28823028060504774,0.3732534915972545
2934,0.26753887515296076,1.0293529893076636
7035,0.11398879169505031,0.8753130444500925
2756,0.5815571440591543,0.9404038728105767
5532,1.3572856696131306,2.485522284425147
3600,0.7406027775805056,1.1167382000352593
3432,0.7493691682430477,1.0670294982393267
6216,0.2144562240003528,0.4693330499880441
4521,0.785517811874486,0.8342630871506392
3052,0.6978780231688835,0.7721972754278125
7057,0.23861939955145256,0.6459585724068212
7298,0.8549341219474847,1.6613594924564006
3030,0.5135389894628296,1.0850465676651626
2520,0.4845370640269287,0.5851401099266496
6572,0.5366919242996728,1.0278152748256624
3943,0.5941809669003123,1.6277123994384959
1925,0.6323583419582666,1.031479615928466
7741,1.0930813566318864,1.6111703658724097
6597,0.9320953437417183,1.5145021002108807
3673,0.9636318233389933,2.133706409155814
7363,0.20596308008156972,0.41778845550743476
4740,0.19485789770998205,0.3876483239887705
2597,0.9995073913950608,1.8357898120003784
4241,1.140227782655078,0.9364213308034189
5846,0.21003006397155463,0.6398127694906783
1583,0.6709081802539311,1.0839594418238003
3299,0.2004257449443277,0.4629233977612526
6871,0.748726648885776,1.0502375335669722
7177,0.637358675946557,0.6266841650019441
4840,1.306452289522682,0.806253373415211
4384,1.3323500917460103,1.648783612496232
6152,0.1692014903946224,0.3732534915972545
5867,0.6209487713454803,0.8394241692557373
2880,1.1163356224387082,1.6127140689923494
5289,0.16745209431354283,0.4173582800256346
7587,0.7909269153950562,0.8203142289225246
2257,1.667467393681664,1.9617703581854402
7534,1.4643248765586594,1.950085704790929
5800,1.0590241965287504,1.7944209581234873
7215,1.263023511827835,1.527414318367261
6769,0.398904500246534,0.5642325002569133
2643,0.14066121181933403,0.8651907443923118
7424,0.4449017574394487,0.8279448847004667
4984,0.1756589201793804,1.0802426828891571
3293,0.16093224284101956,0.3910789013341816
5031,0.18149630620346033,0.41885974165206913
7484,0.6310130457081078,1.3158754496483531
3414,0.5542515644070403,1.3155346209268155
5903,0.9674063506221526,1.6723582615330321
2270,1.6903503805378581,1.7629533946349278
6432,1.0682557526062835,1.3996363213133178
6011,0.8289731199305839,1.743958950987135
7172,0.4717810832587917,1.2653335856230639
5502,0.7985340699285863,1.9184005805579007
3357,0.7731993055438414,1.2267179783190485
6091,1.0375981182968006,1.6787835068627137
5069,0.4639380644626623,1.1182181957508333
3995,0.9278780782445254,1.3728594110182966
2499,0.831526785528581,0.9912501239081628
3287,0.1031648498513338,0.2626169605933069
6440,0.10381101541995726,1.2159847055362716
3621,0.6325008769111061,0.7451377531135787
3176,0.5323286388103144,1.5251799434094355
6402,1.272846955491999,1.9001278732169193
5822,0.8317503826901468,1.7763738380625336
4469,0.19668459330179267,0.3250769371229802
5062,0.18400494947525822,0.42167787857518746
7635,0.64079505634778,1.55677317578442
3879,0.9517750569099788,1.3845790132244344
3512,0.16466016856850466,0.94138951248474
6758,0.3345755942126939,0.6389135531287015
2567,0.9402045318892581,1.8730793638909164
5014,0.3155247764386109,0.6469406444042793
6960,0.8072431845875788,0.0
4998,0.3384468531118152,0.5014251915409026
5935,0.8770580193070305,1.6296525645493
4124,0.2477874158162264,0.5995579538974966
6317,0.4909361000353462,0.7892261234309611
4658,1.292136042368015,1.3001034478137814
6128,1.042968286293499,1.0640752002419485
5353,0.20167792682325358,0.7125563936806472
5915,1.2457898669246115,1.4156238602995284
6931,1.596168481451552,2.3307186070093593
6105,0.9558920920216094,1.3664483054731211
2087,0.2687064296780167,0.29970909641407034
3643,0.8386977796921264,2.03993216658091
5345,0.21773413031772887,0.45668613390236823
5994,1.0541701533240948,1.2921981421177244
3579,0.9263385899977986,1.5610205177681578
6233,0.7869260268398404,1.0369094875534772
3754,0.9302715037033035,1.3794533895359242
4992,0.17272840579874688,0.5468383433824204
3083,0.4438261849217787,0.6508207340941314
6626,0.46863684970762653,0.7146327420499017
7916,0.4486015407176236,0.6240770139563292
4936,1.2913060719697182,1.5011077392734782
4396,0.1756589201793804,0.9044429551860897
2162,0.4789647893612897,0.9464153536440755
3829,1.0983479888429049,0.5579730077481957
4529,0.6243180378629318,0.6616428302242674
3622,0.6315129956391526,0.7451377531135787
2882,1.0048321831593612,1.7370879781238229
3734,0.6942611475729689,2.0646173766467584
4551,0.7811956123144549,0.8515972036084262
6574,0.705075302995019,1.0278152748256624
6066,1.0492550597624808,1.6864697981363654
6051,1.0763553475237484,1.8710536529757478
4021,1.2851328151053145,2.130630505160733
7058,0.22838385440325704,0.6755812895246188
3210,0.9746615038731173,1.6315458172516848
3963,0.7911464611748292,1.6305795419716471
4920,1.0585551681775072,1.3577118393864218
3001,0.24363302078500548,0.32596054968242255
6323,0.4196415488436545,1.010840201240819
4029,0.9282140458251853,1.6448281018021382
4919,1.3083452090290444,1.398937964316297
2855,0.9449111825230685,1.5763987135268924
5411,0.5850989209644286,0.9942232005531725
5201,0.9326220144253712,1.8462527095539925
3752,0.8008877845177292,0.9917277125084307
3161,0.9130650215809255,1.1986714705936663
7150,1.0816422230203988,1.2220205331969671
2709,0.14699730755537826,0.3087592216335405
3920,0.9678938737906282,1.3899407409859865
4518,0.5132545128178166,0.8552675758039924
2774,0.6682381799268856,0.8148333703711808
5338,0.15153861478835792,0.4537187050360996
3314,0.7742224542577492,0.8369313510478276
4765,0.22116681026624035,0.48969624047339133
2693,0.2675258239110461,0.41264693162932015
6004,0.6409610045003296,1.635717014583966
4734,0.20968184724519295,0.3876483239887705
2128,0.1980680216785983,0.45779107564593063
5576,0.18478386068754057,0.39528232953006304
4973,0.9595930899102114,1.7416351947871394
6352,1.0601685577569635,1.641312786725046
6266,0.4694731508457529,0.9174614660759599
5429,1.0036628207424454,1.0180400059044254
5296,0.21659808821731813,0.5582592838750119
4533,0.5288475424203471,0.6616428302242674
4291,1.0318707606837036,1.538427573564808
4670,1.5637822249794167,2.1501792701258546
2841,0.7311064611304917,1.198555576332299
5075,0.6034081687198297,1.1182181957508333
5847,0.19015378455068463,0.6398127694906783
4700,0.15981241202790733,0.7561488101211479
2345,1.2665056554180303,1.3348720333080761
5528,0.8549341219474847,2.3531994140471264
6172,0.2335348250296997,0.2862084634296137
5952,0.6721411177343946,1.0107032054974465
3336,0.5418040471301222,0.6461227625606909
6768,0.31323198490583554,0.5642325002569133
4019,1.51241509312748,2.130630505160733
6935,0.9816591198073527,1.881748124495816
7348,0.2369755964162237,0.6444202992721919
6698,0.8758454442205894,1.6712690312114993
7624,0.41399349588011336,0.831335010647646
5213,1.3493201972373905,2.0750068382491915
2927,0.9100315103865803,1.0863794059229486
7204,0.7556752592189895,0.5879985085047161
2690,0.15580677354249442,0.397501680369681
4338,0.6000326341482322,1.4322616303312523
6604,0.8504918636312074,0.8589445752379667
4098,0.10002100410870775,0.7258707613156996
5060,0.14178222967182902,0.36575931913026566
7756,0.7727548104627773,1.7398881025803696
5174,0.929672046821181,1.342741960702803
3703,0.9030280760720911,1.335692162614619
4187,1.2260802675314304,0.9645934802166567
6104,1.214753220866087,1.3664483054731211
3950,1.0819531256827,1.66261005908728
6470,0.1810240718144668,0.594160003127888
5346,0.19563885295281946,0.45668613390236823
7425,0.6287560796108899,0.8279448847004667
5889,0.3252058739224853,1.1145482010825205
5141,0.535738308916504,0.6690913856248283
2467,0.4892318606372513,0.8957362831061934
1958,1.115481843808999,1.8710536529757589
3329,0.5843328447942255,0.6836844909926519
4578,1.0264353511263251,1.0853607338116777
3371,0.9643049082972129,0.8324009318887693
2259,1.1265766138112283,1.9617703581854402
3852,0.3372151491737303,1.1461494385088147
4890,0.7890015816906873,1.5195258994841363
5292,0.1961727620516612,0.5290415266990287
3262,0.1599357510025897,0.4930241289149585
1771,0.27556246348359903,0.5288180085577765
4421,0.3053512968148014,0.4382834291116475
5843,0.13135130829057542,1.2529915654257249
3961,1.0968762411676511,1.6305795419716471
2375,0.24058279863929133,0.657189932854066
7359,0.1716479718582976,0.643742248226478
6225,0.5003867245285468,1.272140203697527
4918,1.2691546546110433,1.5963867712460151
6193,0.28895536998590526,0.4715944157274884
4689,0.9078695567649144,1.2430347843014098
4276,0.6977087752652992,0.9000683846603624
4397,0.11180031291383999,0.9044429551860897
2595,0.7350669352448076,1.7579145491231807
3970,1.0925627069493502,1.3936332077334614
4933,1.5935001116286576,1.5011077392734782
6519,0.2664829315654766,0.5384657321225407
7417,0.571896765229801,0.9863133672406125
5616,0.7987871238481464,1.2975309697199815
6137,0.2632066881750241,0.5756435225013204
7126,0.8954422845323085,0.5050886799562662
2280,1.0308004987751442,1.8859851681313442
4357,1.0307449193717775,1.2921546536192403
4543,1.190813742064341,1.3232550055296033
4921,1.2566778790452937,1.398937964316297
7604,0.35611271075015216,0.8865318155775723
7557,1.545460518333044,1.3161099536379652
3875,1.0423532474402877,1.4593333814885874
2260,1.3999503128516144,1.9617703581854402
6124,0.864505496419609,1.4320615819882703
2352,0.15838062662963784,1.3141781798646706
3107,0.49157575713354823,0.7480868839070601
6872,0.8264294711126677,1.0502375335669722
7068,0.45783216699564483,0.5788269534166154
4679,0.9096359225800337,1.678655023903155
5101,0.39331419292894615,0.7223774114217753
4322,1.0862919495945713,1.7019592479181438
1991,1.4726416775224465,2.022365344860813
3782,0.9121653827713287,0.9831959947191804
5027,0.16128211852867053,0.42128334139788304
5365,0.5408883867519877,1.0620736120168393
3404,0.8256384167211894,1.0902410318689746
2825,0.32067915412530534,0.6941734437763842
7506,0.35065579516837697,1.7979887626894635
2785,0.38200953733582016,1.141745136343286
5196,1.2207900968964522,1.7964364544320164
2071,0.2130936636765541,0.5330646690956956
2507,0.5108547778574134,0.8210419214142808
6003,0.5107812687455164,1.5207507232617576
6805,0.20167792682325358,0.28884680311244043
3551,1.151439827791973,1.5771429653872935
4127,0.35162945000847295,0.5929058663569073
7182,0.40862624368758027,0.6231582533454363
6582,0.8631113933565769,1.4114681780339242
5882,0.14902855490546285,0.5309072148983204
1581,0.548934590817508,1.0097337091868757
6378,0.8964059538516829,1.866342661079808
7692,0.8271593798287769,1.3875800954490305
5809,0.9831499589698259,1.5493139661829456
4192,0.7794341134708009,0.9645934802166567
6660,0.7269554089213832,1.2791404252031118
2084,0.3614855685218151,0.29970909641407034
5614,0.7175889745552577,1.2975309697199815
2612,0.9606618055814093,1.6367744173288046
4234,0.880802991013288,1.3924151979201582
7657,0.9365001965987767,1.457108786699929
3822,1.1099481173754688,1.7226422851240768
7006,1.5600288924819372,2.241936801798016
4763,0.19719330020654166,0.48969624047339133
3803,0.3292866104300269,0.7511989897016808
7025,0.898414365592216,1.2064102598926385
6971,0.6494606696132799,1.4669607646673875
5041,0.08001319551497915,0.2743541905427157
4999,0.21560224130952418,0.5014251915409026
5132,1.1885718693799174,0.7700320701002824
5374,0.6621812673060348,0.951266324315855
3848,0.11928512639283162,0.5209280384050732
5439,0.5369570948151007,0.8473229240021287
2067,0.2615855719885862,0.5395451587643858
4423,0.2729257816590755,0.4382834291116475
7346,0.262375633295417,0.60980460698725
3831,1.184282577262733,0.5579730077481957
4121,0.32888614093873625,0.5564457180411587
7739,0.7525713426910579,1.778349388261091
6214,0.2004257449443277,0.4693330499880441
7572,1.5085310251217787,1.2284094198612032
6867,0.5230761518583501,0.818669551367638
5219,1.1719352361284263,1.7250422416487996
3774,0.9919824941037904,1.7119215653966584
3824,0.8266285549408546,1.7226422851240768
5520,0.8990148321033222,1.5684177206241694
7515,1.4102208729780483,0.8737491390280178
7552,1.5314383467528176,2.598582999710136
5455,0.47340658968168653,0.5922622787324162
6424,1.0816440605328463,1.8939018546320214
7426,0.48323796264538,0.8279448847004667
3137,1.2463467878902943,1.1842375697581404
3071,0.4909959634984604,1.004674346970349
5936,0.9529516818617924,1.6296525645493
2929,0.32007782662509277,1.0863794059229486
7928,0.46274763725643714,0.736690385226733
2081,0.24714087339922217,0.7081019556082796
6763,0.24110226097582185,0.6457994053213268
4266,0.5294260203298307,0.525800883451475
6304,0.6137185462169426,0.6150778093940179
5015,0.34589499937319695,0.5738894051013773
7718,0.5818646623676317,1.1354463550023006
7209,0.3307771167815407,0.7799402830628266
2554,0.5449180828947022,1.4540462888250911
6895,0.6167472768927611,0.7240304816216309
5970,0.7749890283204972,1.3746792587377656
2848,0.7908169482214715,1.5763987135268924
5653,0.6442456732049954,1.1105524323227538
4286,0.6732651981679865,1.7426202153095047
2849,0.9188854016980579,1.5763987135268924
4240,1.1441092509330895,0.9912501239081706
7179,1.6025650325010445,0.6231582533454363
2753,0.4596208772330723,0.7754646909032995
5896,0.7884333292363588,1.6998264172616184
3839,0.3400323547875715,0.44490411040285177
7212,0.5959131933044796,1.4704324088805512
5249,0.8368052358193039,1.2379136256669887
6294,1.0923574799609264,0.8795827911902686
6839,0.6720804543827337,1.0381927646216755
7449,0.5630335685125418,0.8498548324150151
5000,0.15803971289171362,0.5014251915409026
5554,0.3815200692354609,0.6640968303934983
3285,0.11600574750540422,0.2626169605933069
3246,0.13234245941086353,0.42129641075440943
5972,0.9690616586129145,1.3746792587377656
7492,1.0177474232278911,1.2514847611613866
3446,1.016999034456092,1.541608871142402
3660,0.7890015816906873,1.086441077708979
6515,0.18235239999178363,0.5289102627270219
6951,1.0153806224524815,1.1484172442001355
7320,0.1877950340305511,0.8886825517826792
3819,0.6368363975654039,1.4566509728266834
3571,1.3872123821426288,1.844378705493448
5634,0.6674025418980305,1.9069975413128453
7747,1.3973916457850906,1.3116766493136212
7621,0.2930457045086614,0.831335010647646
6864,0.4766947910623629,0.8014921756313248
4380,0.9084621538089025,2.1009382399157643
6144,0.35107467127899294,0.3732534915972545
2651,0.08465746186293732,0.5784672579995562
6268,0.42565969386826563,0.9174614660759599
4701,0.21558281246938085,0.7525164225720407
3801,0.40006768245541735,0.7045963005276648
6098,0.6178293101472917,1.4791873244742297
7407,0.612886158074581,0.5518152249625188
5669,0.48629374444860013,0.8286049116126217
7187,0.29725992227431935,0.5256042627219664
6156,0.23448650884012956,0.6713147824194943
7486,0.4302928101532424,1.3856988402775905
5022,0.113884413552766,0.42128334139788304
4226,0.7666600906222806,1.2305748879677014
6950,0.9301571071899373,1.209297339779729
6926,1.4258432130595582,2.0408587115024317
2429,0.3052093878175249,0.6271637758184428
7440,0.7021701319867232,0.7304480245517834
4864,0.3143458834064835,0.5196976764475079
5003,0.2979626740525109,0.6189889415419915
3553,0.729126871368651,1.5771429653872935
3289,0.11689570868251253,0.2626169605933069
5750,0.9527720630395357,2.0361673934255524
4678,1.0761176926794296,1.678655023903155
5592,0.878801534267347,1.3798327423986896
7305,1.1934745089987202,1.843597805166193
6107,0.9248737055279634,1.1431398856848052
2231,0.4515351495966546,0.8245172588040159
7702,0.6307725477719283,0.8625245534403907
6229,0.9542051433515922,1.2411055096981547
7423,0.7430347475648216,0.8279448847004667
5524,1.1478472258040426,1.9369799520860898
5072,0.9843291426774485,1.1182181957508333
7361,0.2136371076142886,0.516095776766733
7344,0.25110175881110686,0.5507018264475114
5170,0.9101099458152858,1.3099638279979449
7863,1.3959121002042083,1.353746753637888
5040,0.11190777916817332,0.30043366814379374
6870,0.6289666927718356,1.0502375335669722
2461,0.5504310788016541,0.8957362831061934
5976,0.9722800850265954,1.9829232972272268
2473,0.441632346077836,0.9430116921536
5706,1.3247307951647602,1.6344294227707379
5818,1.0842734715146196,1.7629283722354692
4316,0.9509371746203694,1.8112775593073769
3868,0.7961659159416287,1.4195003613961248
7008,1.308463259328906,2.0220915697577286
4977,1.1422770198488772,1.3578602922332528
6953,1.2984487398350428,0.0
4798,1.5811388300841904,1.5270967174872587
6084,0.7232479451521595,1.314047948758636
5778,0.7366750449285173,1.2307856967452686
6551,0.45440651730154663,1.1134574339344627
2346,0.9210991859475757,1.3348720333080761
7568,0.868044206068613,1.2284094198612032
2427,0.29289436831024035,0.5634377338571129
3720,1.1027674029585965,1.7446376181268142
6184,0.15063203691721316,0.2980856504135638
7498,0.9267453828424154,1.1647465511372412
4656,1.1020710221531727,1.3001034478137814
7265,0.8206803678634219,1.6834495683770465
4377,0.7254862626112957,1.8600733395425753
4103,0.13300814219338639,0.5897954315336402
7509,0.9636429042358967,0.8737491390280178
2201,1.069923716685062,1.6833536720088003
6257,0.7494662055783643,0.9019768594098164
7543,0.9365001965987767,2.500197912082714
5596,0.7813280077631263,1.4833646250032593
4462,0.12602031944612582,0.2855607289088629
4035,0.9124394225719163,1.6392874200706682
5311,0.17562637590547855,0.3528399755182622
3356,0.47925409648139095,1.1081696509468135
6981,1.1681179463430589,1.919816574693468
4786,0.8028496482502453,1.3441272565875353
2563,0.7156849381910138,1.2929396394053252
6475,0.3478389537617607,0.3254522382765819
4281,0.5169074172193174,0.9989452313603968
3529,0.24584899432848925,0.4038407665223742
2965,0.39863056431266336,0.37484805773374263
3878,1.0351766300554253,1.3845790132244344
6702,1.1806101731514793,1.6712690312114993
6585,0.829779195717871,1.541175906450319
3015,0.36943437640987603,0.7083335293260401
7469,0.9816591198073527,0.7518531410989101
4880,0.48979872806126123,1.0703094598587177
2398,0.12918797304648566,0.3943245861215352
3175,0.7870859476192882,1.5251799434094355
5121,1.3236461818739438,1.8406525645106449
4938,1.1770161706283022,1.4240972540473726
3699,1.3661517503536675,1.442211754814165
1999,1.1488675660464094,1.8178023019640606
6429,1.147793072210392,1.5228614097000153
7684,0.9156788181332357,1.1953682898233764
4565,0.3537503799943882,0.5779822409667009
3434,1.1769934528138242,1.0670294982393267
3682,1.2368707803460253,1.9848145980187648
6545,0.5110271215203745,0.9440514924069527
7671,0.5582204780487299,1.8427668776936843
2645,0.14596963298674215,0.8338668698967767
6382,0.7599364085422249,1.9597237292995047
2991,0.12389628411264668,0.34839177263922394
2957,0.19849016120196467,0.562157728682879
6289,0.8152081496591432,0.8795827911902686
4048,0.9428090415820638,1.9978260984435634
4846,0.5879292689441769,0.7080964451033885
7072,0.2236112142615488,0.4877560117491797
7680,0.7264777851135075,1.1953682898233764
5933,0.7387235647354664,1.7331421764746278
4736,0.1881639516971587,0.3876483239887705
2884,0.8864778633158896,1.7370879781238229
4831,0.8838546755530258,1.5211706407374794
6240,0.7055192571181466,0.9908739681842691
5314,0.15265439737898526,0.3528399755182622
4927,0.8042938469334394,1.682377454361002
7378,0.1541939007051798,0.3827723003906626
4134,0.16720311097718676,0.23837369174791587
7321,0.09730669817006732,0.8886825517826792
5829,0.9868841035401459,0.9571429800598203
3198,1.0233940409176823,1.3756868213777544
2361,0.28054399158828147,0.3853669825614598
4991,0.14855234160262776,0.8057438590601385
4296,0.8782558008812882,1.3893791357968424
3967,0.9126833110459249,1.5508517229945162
3165,0.9294289280086993,1.4885786884489254
2851,0.8929401954728153,1.5763987135268924
4115,0.2504946829472917,0.48360717808991566
7049,0.22811665635586767,0.3500456634875642
4210,0.6364950493241144,0.8351100911396978
4832,0.9662538475578971,1.725259046241239
7715,0.8775185448516309,1.1354463550023006
3779,1.352822876709233,1.4338786172193774
4660,0.8857164273734959,1.3001034478137814
4683,0.9487898054558612,1.6246198014197328
5443,0.716031038748654,0.64563566359486
4540,1.2488786441174244,1.48581995783603
3291,0.14699730755537826,0.3687040870323405
7799,0.8922154871995246,0.9695159453741873
3214,0.6881147575965866,1.2925177591225794
6474,0.23992993401402304,0.3183005433775144
7803,0.42976229607741295,0.9695159453741873
3064,0.5068610513220663,0.778175950162971
6030,0.7878732099784982,1.320068716580494
6695,1.11557358375415,1.6712690312114993
6756,0.253801676777109,0.6120526047805734
4879,0.43109923532886074,1.0500690027883506
1545,0.8913715646127871,1.632499665364714
7383,0.11186410751536961,0.33191365934691996
6881,0.790961953661925,0.935360720002761
2624,1.2366634173713735,1.1552604600890182
4386,1.2138614041295481,1.648783612496232
4415,0.11903464395125192,0.5459068977123205
5094,0.5670907551564401,0.6030082171068686
6635,0.7974908611650553,1.0769270518968694
3413,0.7285799949856776,1.274160731239206
4297,1.3599011645321304,1.3893791357968424
3969,0.9973013541602003,1.471370322926401
4562,0.3697355818099162,0.5779822409667009
3039,0.7671184471152411,0.6560491383281354
4378,0.9528363428745636,2.1009382399157643
6983,1.0850803244981793,1.90608686230126
5168,0.7075756427800317,1.2064516593999959
6943,1.1829796003445703,1.8916386749883127
4965,1.034568755787906,1.609288321325051
7753,0.9563552404028411,1.4656467726663887
7064,0.28602591397191024,0.7914585950474776
3630,0.36973016362155464,0.8623776186967211
2082,0.3393811089245853,0.660934927426596
2615,0.7599364085422249,1.6794355372347967
7514,1.2452926137181908,0.8737491390280178
6557,0.6710830033827594,1.111938081784103
7192,0.4917110422186399,0.5256042627219664
5171,1.0022412653461794,1.342741960702803
6773,0.17081436034965292,0.47069842525603
6828,1.0173491240031398,1.9501773334950248
2836,0.47086880577420415,1.3493319121069571
6840,0.7205346253259844,1.0381927646216755
5088,0.46469682393832207,0.757497075009614
3131,0.864146508717084,1.3051022120652243
6975,0.8509511387175114,2.0089841528940298
5274,0.13984226387612958,1.0941072864441566
1987,1.3495597386775946,1.985617975400977
2220,0.6623748477752659,0.7192736144461337
5580,0.26343162049995056,0.8927815333782257
3560,0.6684248360260725,1.620427349074837
5880,0.22722394645557992,0.3833724286828664
4632,1.0516346970709947,1.4161466902223827
4465,0.1061794536384472,0.2855607289088629
7014,1.1051052483098274,2.0220915697577286
7316,1.013102317572125,0.8682056507016939
4785,0.9382302199299889,1.3441272565875353
4289,1.0045206294467808,1.7426202153095047
3075,0.7556439227951017,0.9676394292413685
5615,0.7671883619265613,1.2975309697199815
6980,1.0859788083451376,2.1337392425491326
2168,0.6895982101689531,1.060305190161405
6055,1.151203096229698,1.683730861466419
6275,0.8947599553931765,1.1427579601289077
6650,0.9506938804798662,1.6230952284185125
2147,0.5575450666013891,0.8365298770359227
6918,0.4944866718608587,1.0434900189689982
6065,1.0828884414403384,1.6864697981363654
3215,1.0564251142772374,1.2148414266490113
2330,1.763716663512457,2.3936583317966216
5797,1.002889637121307,1.5017231184879913
3492,1.0516621563801476,0.9948584365426506
3096,0.4830221160628036,0.6181744965220382
3833,0.6057937633962848,0.4652791775374321
3250,0.23612489921084912,0.6105048571952203
4698,0.1866811082821122,0.7561488101211479
7108,0.6093847384397114,0.1974914754043595
2919,0.9833168175322726,1.6374246304150384
2958,0.24629508933257757,0.562157728682879
7748,1.2799214086476391,1.3116766493136212
2695,0.3099995431273366,0.444493975474298
6669,0.5040752093800865,1.2170063401951254
5224,0.8347938137427282,1.8228958053991433
4341,0.8178527827937762,1.6933847078442608
6984,1.615561006818674,1.90608686230126
1792,0.5469082404055395,0.7380512542388057
3688,1.22085033692812,1.8399963156087322
3378,0.34281696183488153,0.6438908922102774
4523,0.34285827347952375,0.8339587024581891
6139,0.3136504186596653,0.5756435225013204
3518,0.24500351742055224,0.6338115472307932
4217,0.3107033977687633,0.8784541592355227
5445,0.6382803619957756,0.64563566359486
3599,0.8819691755797173,1.1167382000352593
3845,0.1805431966320684,0.39894801013218995
5230,0.7238810806950814,1.5188697315478958
6990,1.1029610024862981,1.906824579565942
7497,0.7545984941442556,1.1647465511372412
4633,1.0109865699844292,1.4161466902223827
2143,0.8038973793864422,0.9813130016895671
2158,0.7110154883226905,0.864426763660521
2945,0.2331503810239827,0.5466656587945338
6684,1.409282659336237,1.8174022972637935
6664,1.2908291835369299,1.2791404252031118
7854,0.5798942969373523,1.1489627717356594
2251,1.1637936103203432,1.935938350081202
3192,1.0774098669190775,1.3756868213777544
4642,0.8543820649710127,1.7527170730257642
3257,0.2893349143652915,0.6028436391692369
4156,0.15331912764348912,0.3216344407424797
7645,1.0296533290897654,1.2563861114873267
5147,0.4052222088600881,0.8036306251744024
5217,1.0227410575005091,1.7250422416487996
2010,1.092842325404396,1.2374534156241264
3098,0.3755141512839066,0.6181744965220382
6468,0.22057956011533073,0.5662964614215666
7389,0.2356571846576994,0.3123102892137509
7024,1.164710682886723,1.220086200171968
6503,0.12913184388066398,0.37621977095730375
6043,1.3304230781241977,1.8572596177098828
5931,0.8057632952137126,1.8031703294176753
5399,0.44273477788592425,0.8406837776470258
4040,0.7303625567541749,1.6416721263807543
2211,0.6039550123289527,0.8798528653580182
5061,0.1419854739221248,0.36575931913026566
6887,0.6947387981484392,0.9248819713999757
2208,0.7898231408971383,0.8798528653580182
4253,0.7285479463306858,0.7392869241504124
6833,0.7767223140864046,1.2340459017798566
7691,1.0199867692458355,1.4032849932924079
4951,1.3050653285285052,1.7940621139692534
7372,0.1556930297067839,0.4845518545667044
3844,0.2011086648068815,0.39894801013218995
3577,1.176818677548983,1.5610205177681578
5989,0.892016535512705,1.408467164867105
3318,0.5468271627946081,0.8092813582490594
3561,0.4855559946572886,1.620427349074837
6450,0.13543662534437315,0.4075566332088904
7102,0.1597673718644674,0.0
3870,0.9938696643363768,1.4195003613961248
3061,0.37297366337204,0.7721972754278125
3717,1.1337323329236282,1.7446376181268142
6771,0.308640665370137,0.5642325002569133
3441,0.6792390531930064,1.1081450121976464
5405,0.414956617083698,0.8273349233784504
6547,0.7927221690476298,0.9281253753320131
6958,0.9684911310117971,0.0
2807,0.3769024171993692,0.6874210510685569
5011,0.28645232522188646,0.6297596570369268
3284,0.13759067807572165,0.2626169605933069
2652,0.1591246765044454,0.5233208317934217
6569,0.7346790589928621,1.236726645005632
5747,1.007904898590994,1.723856233134143
2878,1.0473065144483202,1.6127140689923494
2524,0.4447860785396497,0.6319833918808375
6081,0.6879332075393668,1.3857968288627553
4914,1.1488675660464087,1.5982216577961466
4767,0.2560346559943623,0.48969624047339133
2966,0.27732138559384456,0.28839748286877104
2981,0.1712345844993377,0.3475263367712546
3909,0.978431069927585,1.4121582759202258
3742,1.0443435575644588,1.2309512288596962
4966,0.9710454474291013,1.7589772616052621
3609,1.1341728509944662,0.75749712661595
7466,1.6949994774177595,0.8976452261396715
2254,1.3807147587126571,2.0495132187115184
4513,0.464352273869338,0.7808352468211687
4191,0.795836123529462,0.9645934802166567
3681,1.0205437614067199,1.9848145980187648
5315,0.16128211852867053,0.3528399755182622
1773,0.2863860915519932,0.5792570395456232
2607,0.7958287896375887,1.5917911421138757
6130,0.7310938335597291,1.0640752002419485
7004,1.5470970174647658,2.369617819561017
7516,1.3494678195641316,0.8737491390280178
7589,0.56257075602484,0.8203142289225246
6957,0.960708113029785,0.0
5652,0.6000369184427267,1.126335306181084
5107,0.4894144278400686,1.0502973150274686
5057,0.1985464395116396,0.36575931913026566
6775,0.16561553259925724,0.44320520973751715
4221,0.47744999146015527,0.9972621335133411
4982,0.7674580358991183,1.0802426828891571
6271,0.6066771045942017,1.1427579601289077
3644,1.151203096229698,2.03993216658091
7798,0.8412406416068087,0.9695159453741873
2621,1.3104202446352888,1.1552604600890182
3444,1.1139840300291086,1.5231498182898187
2887,1.1437608506356602,1.6347531917412483
6171,0.295427808767188,0.2875401000457681
3506,0.10436517585965659,0.963916560542831
3568,0.9806452706607247,1.9640473567484749
4099,0.1293333806127127,0.7011512729053917
7202,0.7093647331175342,0.5879985085047161
4926,0.7303625567541754,1.6349808823771121
3854,0.41508686968322356,1.3286246742961623
3764,1.292815881620086,1.8389441690105923
5026,0.15265439737898526,0.42128334139788304
3286,0.12602031944612582,0.2626169605933069
6878,0.8430335368007132,1.3965348787702405
6228,0.875939379997169,1.3135068986465872
7141,0.3825246206206261,1.0162446605987974
3654,1.3147368946711049,1.6001905918296997
4728,0.2954901906908031,0.5118283708015379
6601,0.8862151472032784,0.9335832983805379
4934,1.4462755522883155,1.5011077392734782
3442,0.7374383739490553,1.2413076980654418
3330,0.4609061884593454,0.6799817102672103
3204,1.120354060875836,1.6260682627547027
5325,0.3372645957961503,0.4147003871907082
2144,0.9381765301843602,0.9026527119136218
2213,0.6573583849858682,0.8734862968856937
5568,0.692862454385852,0.519180937699856
4418,0.17217149582437705,0.5307658183752719
3631,0.47925409648139095,0.9555853387180907
3954,0.6611840352016224,1.731311906513273
3145,1.0949825144363277,1.4549146781135536
2630,1.0949825144363277,1.2351643788333833
2633,1.7272218678696802,1.1735351980572837
7330,0.1369639890075478,0.7771292411824633
3048,0.4792587262194026,0.8271200459747875
6614,0.36414139775358045,0.6779105919812982
5237,0.9279142962721185,1.3467134728791124
5559,0.7791684646464896,1.3752476614503624
6777,0.13758647384072728,0.44320520973751715
6929,1.5254360487089544,2.0799271621938638
7938,0.9075609771794431,2.100407640558661
6821,0.2815823137072601,0.7972483933898408
4222,0.5572651528439535,0.9972621335133411
3706,1.0962239429608944,1.335692162614619
3146,1.0949825144363277,1.5100038934969502
6721,1.0455323943621386,1.8392153516597467
3217,0.8613602285158587,0.9292092359797647
2885,1.063389817813666,1.7370879781238229
2445,0.4683171009832631,1.3772956016830575
7297,0.8903961283722379,1.6613594924564006
4205,0.537253747650506,1.0125366279407066
7801,0.6841119308309704,0.9695159453741873
5326,0.13282561436481644,0.3671112115203636
6241,0.6108729554615104,0.9482913334775331
2372,0.24123405208712953,0.6413085836713549
5623,0.9531489332240278,1.0701661664334647
5523,0.9689693830559691,1.8052348320364746
5453,0.4250721333051251,0.5922622787324162
2341,1.0450768059474886,1.5106319884117814
7402,0.3708000602167066,0.738243711075937
5420,0.7462819797684439,1.5316234566616491
4109,0.29079113185659977,0.5864565601471824
5002,0.26969385428091786,0.6189889415419915
7683,0.5530700588013435,1.1953682898233764
5153,0.49425969899948347,0.8655054623855155
4412,0.26952301204110474,0.5825314420621645
5583,0.8067042726307737,1.6703998659561694
5930,0.9529516818617924,1.9615420344572152
6968,0.8593516899421122,1.2394158647825777
5349,0.21449307084062266,0.5090442912417809
4814,0.7012796460618802,0.9183547511446647
4108,0.25499376336768065,0.5864565601471824
6471,0.19432256544086915,0.5662964614215666
6903,0.38664226735292295,0.853367261821463
3739,1.1566876362399252,1.2309512288596962
7211,0.5068508203788907,1.4376359121686495
5677,0.4675316012061525,1.3563789749602069
7117,0.31548920340885,0.476610044401382
1439,1.0978218643982618,1.9558046076983542
6427,1.0096117628169925,1.7738276737066285
2951,0.2446867766330854,0.5386037752106289
4651,0.9426504735894379,1.6563216331522117
6246,0.8265920721048757,0.869669325803066
3778,1.2942725803470927,1.44690270518447
2779,0.6051314971243228,0.8728378254478932
5748,0.9084621538089025,1.9888686926297037
2274,1.9458568023424019,1.6721631705967541
6598,1.1629418473458624,1.4165433334806514
2961,0.1900722829979969,0.6103258330841116
2466,0.4989503758181434,0.8890794213308282
6893,0.8372504638997759,0.7240304816216309
5602,0.620726338063927,1.2047583804014437
3026,1.1694792141145098,1.1180986748011046
5803,0.7052232941357648,1.5493139661829456
6295,0.9776894570535336,0.8795827911902686
1697,0.7590566122719831,1.1975567466456705
5621,0.7724992273619418,1.0701661664334647
4180,0.27014809495347486,0.6354485739251091
7627,0.3252058739224853,1.03057366825751
5696,0.9068510333863095,1.5586109666051091
5906,1.1266584767336543,1.761639965836625
6908,0.4154275900377938,0.9516942054051141
2269,1.2712834523274565,2.2594882701979557
4113,0.20478149267837442,0.5255440045664865
5038,0.21174720368943536,0.33696321046635963
4376,1.000599222866888,1.8600733395425753
2161,0.3387015124162349,0.9038847637919887
4519,0.7459473237219035,0.9053160989786975
2569,0.9507627388203215,1.8730793638909164
5529,0.6675036112770637,2.424177573457889
2378,0.25507007026902573,0.657189932854066
3009,0.3351990591159103,0.5774461011160135
7477,0.5481274332380663,0.8000838644398671
4771,0.22881857121182467,0.5617265676597456
5034,0.43503751318234996,0.46028850863580345
6258,0.683427643579494,0.8653306053502512
6861,0.8018454186322156,0.7561549666634024
7608,0.6329122396463676,1.0326117736847318
6745,0.2922718083631531,0.5485083437476522
3226,0.1529651365754048,0.7979028314460905
6434,1.3401793980353767,1.2159847055362716
3707,0.7418505330628334,1.340767476774612
5783,1.0294990674223103,1.2307856967452686
2828,0.36871783597054564,0.6941734437763842
1549,1.2345828020657403,1.405886817342623
5209,1.0084789648916952,2.1570896996876225
5526,0.7516933982505549,1.9738762519889579
6857,0.6736706991849157,0.7561549666634024
3370,0.7441269237648902,0.8550926967897069
3917,0.6857335375993046,1.3899407409859865
4411,0.2160322917915436,0.5631927444521032
5226,0.7606414650648664,1.8228958053991433
7460,0.535877026350983,1.4220430330326572
3261,0.1917557162397799,0.5173667803734654
3902,0.9425310114408002,1.3619453628142633
5904,0.931292227145663,1.6723582615330321
7518,0.4085063511766784,0.8737491390280178
6381,1.3534946186868304,2.124193057532063
3594,1.124228433059038,2.0540335607521385
7303,1.0307802993759325,1.8375168478890886
7003,1.2749288373297645,2.369617819561017
7163,0.21576785443062443,0.7437418967476283
7450,0.5181260048515359,0.8498548324150151
6637,0.6904545870159813,1.1910311286744788
7176,1.241296928814875,0.7120147923809715
2521,0.43895690112024216,0.5851401099266496
4265,0.31380442868992325,0.525800883451475
4189,1.0713649695935747,0.9645934802166567
5360,0.8953498530482846,1.110682366912807
3841,0.496822777997708,0.39894801013218995
5705,1.1196817047793668,1.6344294227707379
2541,0.6811320059108444,1.4447702003277376
3677,1.4500979785674764,2.193203120344072
6262,0.7177531312942121,0.8653306053502512
5103,0.6679718689264671,0.9211672363240546
5537,1.5560832313513453,1.326413988902309
5162,0.4773029689784572,0.7982487569073213
7655,1.1688028865047149,1.6437299230539681
7561,1.1649449669688499,1.2830998591127785
3288,0.11204192500392597,0.2626169605933069
7615,0.49276323720778187,0.7681986516374365
3256,0.3227636795563431,0.6028436391692369
3832,0.9208463281486521,0.5450898449197178
6577,0.985965333335662,1.0278152748256624
7080,0.21240334460473936,0.4918871675259987
6500,0.14606460045557135,0.4102953938983978
7326,0.1394899387044796,0.8575784544314291
7157,0.6663375657216498,0.7437418967476283
1984,0.9922655470326052,1.985617975400977
3411,0.6645521542057993,1.1752424054919717
3888,0.9509371746203694,1.4831329787417162
5299,0.19663411494027835,0.5582592838750119
7067,0.45283694601899904,0.6111651654147835
3123,0.723274788715199,1.3022117940632538
3019,0.48672010870979576,1.2474402636065298
3247,0.20456475708176533,0.44243232899469076
7530,1.4066791027091383,2.0697884434378615
2487,0.6174201043944347,1.4310576911345796
7924,0.6157535103011545,0.736690385226733
3014,0.24214163574618736,0.6350836117610943
5427,0.8448595489173428,1.1080979154707484
2826,0.3615280416454317,0.6941734437763842
5761,0.9353031712222548,1.6593458412377706
4634,1.0499334158115807,1.4161466902223827
6784,0.16687276416739225,0.40475261630611836
3627,0.6373562895994926,0.7543682855602828
5535,0.9893192978062365,2.367760070779265
5039,0.16057477201645484,0.31723614167047365
5246,1.1842985414792424,1.7866447272332098
6778,0.22877752466025184,0.44320520973751715
5772,0.8592805402535564,1.7003104320143176
6605,1.0612609826239572,0.7642725369828146
6491,0.21304673574182936,0.39740075869563607
6526,0.2633729538684573,0.5825641694552529
4007,1.266840281170153,1.8416590901237713
2631,1.4085992442510216,1.2351643788333833
6589,1.063280010703838,1.5847017613946366
2535,0.38798265544497806,0.7857426972707695
6504,0.1620716422106698,0.29385567275755403
4825,0.5539766033333103,1.0585027224777763
2944,0.2656099322475604,0.5466656587945338
5415,0.7152370370970366,1.9857831797007914
4153,0.2887421372519547,0.32784704802541914
3423,0.7798652549534714,1.6181263912936077
5006,0.31629007931413905,0.6189889415419915
4420,0.2303454138185476,0.488485026812685
4010,1.0457519162607418,1.8494684409950044
6916,0.5451347890892476,1.0434900189689982
3339,0.494174379195512,0.7302584483080132
3566,0.850951138717511,1.879806089163579
6633,0.44191937980103657,0.8780337485888526
2858,1.2182267782595975,1.761480129559287
6350,0.6590942245816149,1.4581991262494278
2812,0.21180681127070916,0.67054140980597
6606,0.904982024462816,0.7642725369828146
5193,1.0719342086469765,1.7964364544320164
2986,0.46271150653992044,0.479746527990276
4434,0.3710365378398289,0.5036046104151701
2015,1.1726858542726812,1.2374534156241264
2900,0.9337285527281616,1.7744850453279288
3910,0.9701659930760288,1.4121582759202258
3554,0.8443867258909646,1.5810102235096457
6892,0.6939127822447724,0.7558893811864392
6869,0.6599839873588593,1.0650252826482027
7188,0.3496155297776982,0.5256042627219664
5250,1.0517895456939512,1.2379136256669887
5581,0.409371656095107,1.081331679873385
1577,0.4120179817094247,0.676613397295414
5929,0.8770580193070305,1.9615420344572152
7156,0.7117381500775414,0.7437418967476283
6215,0.18686592198178564,0.4693330499880441
4655,1.132001687996996,1.3001034478137814
3672,0.9659780061730466,2.1986925914954267
7553,1.6358774649027485,2.598582999710136
7641,0.9680627681343111,1.349026734487069
4126,0.20023752138978282,0.5995579538974966
4325,1.1462171811126194,1.3225023450217734
5028,0.12328135844729243,0.41885974165206913
5400,0.5186730751837451,0.9031869788799646
6955,1.1650553613280958,0.0
6529,0.32493580328712696,1.0130638433111079
6783,0.16800291104751044,0.39138294127266604
1550,1.143776447470874,1.3023916263091024
2994,0.12011216093353476,0.32152303096063317
6059,1.0893646784107922,1.6512125418126795
7353,0.3608396541154556,0.6552714359031805
6818,0.23091900735765566,0.4623835167030234
7155,0.637358675946557,0.7437418967476283
6077,1.5967076789678807,1.4441823960483224
5505,0.8421045781399219,1.909866039591006
2776,0.6864830803632646,0.8125569908581133
5029,0.1388465308680148,0.41772222457860125
6089,0.6324709775340126,1.4645485296884377
6217,0.22737689737136227,0.5022477594252127
4979,1.058985535712313,1.132843048848157
7765,0.6594933159716809,1.3340817401424592
5050,0.17507849054202498,0.36508246841177966
5291,0.21620012966707808,0.5031869861986913
2822,0.31455966088819315,0.6813112657820422
6706,0.9938696643363757,2.21768647283589
5158,0.7603776036514416,0.7982487569073213
6770,0.3293221282338589,0.5642325002569133
3304,0.24690692738064146,0.5784870375830357
4363,0.8562325094789901,1.7033088344469827
2809,0.42111796283575104,0.6839536247500068
6000,0.5159833467103894,1.3317478975709187
6442,0.10175553792819136,1.2159847055362716
2616,0.7406027775805056,1.5982216577961554
2337,0.8849939953223025,1.9769071792908888
5826,1.048621360829811,1.4377733474051715
3809,0.46474818260644635,0.790559061828303
5813,1.0671697577432324,1.7718470123160177
5899,1.0457519162607418,1.6998264172616184
5092,0.5273643810042923,0.6030082171068686
7783,1.0625179253028654,1.274373351554993
5647,1.0545754544254327,1.2117792580857822
4168,0.24414471781055025,0.3758770764920962
1570,0.6585433971791277,0.676613397295414
5839,0.19714120041459088,1.0555654684441313
6530,0.41810703078898476,1.0954320077308792
5112,0.6103473232149254,1.273642675097751
6485,0.18594165188122772,0.3289883490131063
4536,0.44299480370749755,1.0111111757158924
6472,0.2718951683209894,0.4159007032692841
5091,0.7396596922652705,0.6891185718531332
6914,0.6864166037575677,1.0434900189689982
6031,0.7878732099784981,1.320068716580494
6512,0.19630120547803334,0.28357873074269146
3491,1.0350146764362722,0.9948584365426506
6723,1.0144343551241028,1.673189181781884
3543,0.888857500432326,1.6344827806230633
4795,1.5025194778356337,1.611248323613069
3102,0.5495297622161315,0.6181744965220382
7022,0.9148265698557223,1.4685601697321937
6147,0.2547847560410244,0.3732534915972545
3708,0.6324709775340126,1.340767476774612
5680,0.8273526653587265,1.963192212138799
3640,0.6248531317803263,1.8245571180253828
3735,0.9643720431139114,2.151416389739363
7122,0.2502451445914396,1.0620274217487635
2442,0.6140982016858869,0.842513305914433
5408,0.7159190119986404,0.9942232005531725
7636,0.468996442079551,1.8171196625800163
4381,1.0677764984476428,2.234389037367595
5587,0.9888983396872607,1.3798327423986896
7942,0.861556977782918,1.4185306613923865
3361,0.7453713091502912,1.6365631055147147
2781,0.789126714990226,0.8865328602335477
7537,0.9776288064824883,1.950085704790929
3147,0.9790403198079544,1.5517207128627213
3549,1.0325468024097695,1.5771429653872935
2401,0.47356724817259516,0.365077467784651
4564,0.34983353635958386,0.5779822409667009
7448,0.5904016468390026,0.8498548324150151
4374,0.8943437228207448,1.8600733395425753
2509,0.5484729507922103,0.8173494288204233
2370,0.19903644596788833,0.6413085836713549
6802,0.154354884608911,0.2737284093964318
6508,0.14352746853650047,0.28357873074269146
2833,0.6019258390119931,0.8755904764433614
2989,0.24298308596977958,0.34839177263922394
6174,0.15873104935972693,0.2862084634296137
3490,0.8106052230437434,1.2557116308586889
6349,1.3076049717975544,1.6516235474193959
4031,1.1833755959072825,1.612374558167753
4257,0.6037889970564186,0.6525967893619906
6417,0.8859972117559111,1.826529448254435
7350,0.2979626740525109,0.6444202992721919
2859,0.9453704011107588,1.7714414954046998
4862,0.37540786586995406,0.6162805155636066
4826,0.6915545878736894,1.2348831579297128
6320,0.38005900699334116,0.8668585568940333
5036,0.375541983159266,0.3728056707007971
6732,0.35109237047616426,0.9797617141408174
4560,0.4918759008080974,0.5779822409667009
5815,0.8383528049017341,1.7718470123160177
5633,1.3147239070785206,1.9069975413128453
3018,0.45626251774874677,1.1244186343917812
2987,0.2933178593114499,0.4542084070977432
5111,0.689965863429779,1.155319151640642
7610,0.15218375055739108,0.9607343111041072
7757,0.4571495414953987,1.9212969934904975
2648,0.1293333806127127,0.7488031663472218
5032,0.21614706305219847,0.41885974165206913
3536,0.2537266896929253,1.1608289614693224
3842,0.3516750536434589,0.39894801013218995
5268,0.7004977791834024,0.8469578327996772
2402,0.4908622934196414,0.3411106455073786
3394,0.3921165801802275,0.6833224156016036
4769,0.26331260718618144,0.48969624047339133
3408,0.8543846238044925,1.0902410318689746
5221,0.892016535512705,1.7225704071675938
3541,1.0143523793736953,1.903668230211361
4797,1.6015348938503082,1.5270967174872587
7115,0.5208160094595103,0.476610044401382
2708,0.1537467145503687,0.27009492534612234
4708,0.2598967627536832,0.5787721017857812
6746,0.5108839255528812,0.5485083437476522
5181,1.0581178006419432,2.016952206051113
7073,0.19436304876439664,0.4877560117491797
7109,0.7586849363526641,0.2800047586228614
6543,0.8287568910979652,0.9440514924069527
6312,0.4845370640269287,0.6160130915976796
5974,0.9179652287528365,1.83603427982751
2876,0.9427331661897441,1.6127140689923494
6484,0.11189884771098299,0.3242944123608288
7677,0.8592718802577305,1.492619785428882
5323,0.4572965495133389,0.4147003871907082
7089,0.423365320493963,0.4687449265810811
4711,0.1667828214905979,0.5787721017857812
6999,1.3055376150832458,2.2987384875199814
4638,1.1841036578382647,1.4161466902223827
5572,1.1155684016249192,0.39528232953006304
5506,0.7475090494269783,1.8885501831042486
7581,0.5248362517380856,0.8203142289225246
3082,0.3970662681633192,0.6832571242370139
3232,0.19107399059672894,0.5674854295468731
6019,0.5971844073399442,1.9036129441736938
7661,1.0668430529520063,1.4786684594172028
4333,0.6356442700282133,1.2378476491825332
4972,0.9130096959105239,1.9182519735875667
6645,1.0494827572694803,1.7798212817312766
2011,1.0937270553588165,1.2374534156241264
3576,1.1695713653573656,1.5610205177681578
2005,0.5695584965412025,1.8616580997636267
4437,0.1917557162397799,0.39151946439702656
5701,0.9606618055814093,1.6095070221962515
3743,1.069923716685062,1.2309512288596962
5912,0.8266285549408546,1.4156238602995284
2244,0.5542515644070403,1.291676645068695
4101,0.07567061527174457,0.7011512729053917
6912,0.8842700544883194,1.0434900189689982
3602,1.0259783520851542,1.1167382000352593
3936,0.9576479143215103,1.7239858339053225
2268,1.6657669759070124,2.483460598114172
6803,0.1725601987399796,0.28884680311244043
2258,1.356280538373369,1.9617703581854402
6386,0.6662641509066265,1.9597237292995047
4171,0.24150325318685759,0.42197065446830334
4635,0.9142582859323904,1.4161466902223827
3945,0.7583118563116344,1.6277123994384959
5206,0.977879560381642,2.3755176363308097
6267,0.4474844178979417,0.9174614660759599
4878,0.40941122559323107,0.9756134192836274
4018,0.943408757348594,2.0144321399343053
4636,1.2462856424994435,1.4161466902223827
2425,0.33100313092594835,0.48080229963911636
7395,0.2901906094787003,0.35615310066502553
4944,0.8372513991297105,1.5558400022762437
7481,0.6774225050521407,1.010374331374751
3234,0.23861980693403903,0.5674854295468731
6555,0.7548060143190214,1.0331884401073173
5139,0.3860199498016103,0.6032779348916926
3046,0.6843695917796087,0.8271200459747875
7127,0.6932038148282107,0.5050886799562662
3750,0.9755039372445459,0.9917277125084307
6070,1.4130170744180282,1.6864697981363654
7201,0.710698095716749,0.5879985085047161
5911,0.8757039006291679,1.4156238602995284
5384,0.5548286718796924,1.0338628176354898
7489,0.9092135109899101,1.28297843379262
7571,1.2880708751304717,1.2284094198612032
3780,0.7223836528333316,1.2809317789918055
3922,0.5487029760933274,1.3899407409859865
4742,0.18645182940461197,0.42734055788848135
7116,0.5115052359018577,0.476610044401382
7792,0.8125103304443204,1.2785753146166186
3253,0.2577211041781753,0.6934776079678979
4314,0.8390637046888361,1.7688957960430607
6141,0.25917487872147155,0.5756435225013204
6948,1.2214355395214958,1.4944290911467248
1639,1.3669243743925619,1.9616464009590249
7081,0.23921689712142485,0.5217573263370716
7270,0.8592226174146764,1.3888644140166688
3573,1.1114045438952156,1.8571693164718142
7015,1.2691560927460106,2.0220915697577286
2600,0.750161944767482,1.5950104416399467
5165,0.4056355887954503,1.1050620068520738
3121,1.1810121979127615,1.3022117940632538
4188,1.1857532656600571,0.9645934802166567
4947,0.4596086290879403,1.5558400022762437
4989,0.09108317107560794,1.09308388085842
7566,0.7713513580660352,1.2284094198612032
6125,1.2341469845983102,1.3861020793855283
6674,0.5747237346013634,1.2170063401951254
5548,0.5622013986290526,0.462458947341154
5683,1.0963379943509803,1.7661456724423843
2847,0.5293927949285646,1.2501329307314033
1924,0.5544098476727218,1.031479615928466
6703,0.9121805282641838,1.6712690312114993
6138,0.29176864138271846,0.5756435225013204
6719,0.9629538095878917,2.4119469370210185
6825,0.732234875392963,1.6206928302080181
2949,0.29758678766614133,0.5386037752106289
4431,0.2634729450468761,0.48266790682787303
5962,0.6034081687198297,1.115865432998957
5428,0.7701151427308065,1.0283980484260804
3263,0.17422664129694035,0.4930241289149585
5079,0.821565490102019,1.012623825080708
3367,0.9831499589698259,0.8550926967897069
3557,0.9521285656607656,1.6217795989962707
3724,0.9553526854559253,1.5874043374318367
3274,0.21614706305219847,0.480491644732084
4866,0.461542252051167,0.40511295363355854
3994,1.1238306335653292,1.3728594110182966
3595,0.8202236825372975,1.8072969946435045
6812,0.1552634343793979,0.4470726433815709
7394,0.2798304796171283,0.3460668987396461
2515,0.6475054075917173,0.5851401099266496
5894,1.4059049495734899,1.883837284965319
3516,0.6568217771570419,0.6338115472307932
6149,0.29712783784080765,0.3732534915972545
3240,0.127263257444825,0.44243232899469076
5578,0.17356510419609722,0.6704692938238555
7758,0.9327613164256795,1.9212969934904975
5501,0.9422630002033726,1.9014214768036763
5618,0.6864166037575677,1.1605567507031833
3532,0.1317165368741759,0.4038407665223742
3342,0.4200903643177826,0.7509415614240699
7071,0.1716479718582976,0.5177912734001637
5391,0.975666884224908,0.9284735478253403
5830,1.0587605735007926,0.9571429800598203
2796,1.54300461880866,1.4573033423977015
5449,0.4061162057147588,0.6093480600321545
4978,1.2598813800746502,1.1739581733998896
7302,0.6269756952351804,1.7699077610178298
7617,0.43642795793198236,0.7681986516374365
3821,1.0284414371024913,1.6764839087380907
5811,0.6167789700621453,1.591642141881277
4367,0.923367979597434,1.917669371864534
6162,0.22185502929491074,0.655501892729625
4976,1.0067153450903397,1.4295158016861147
4657,1.2080734927342411,1.3001034478137814
3665,0.8707102208201275,1.086441077708979
7467,1.6666666666666636,0.8000838644398671
5755,1.2806044822290654,1.6593458412377706
5871,0.30776753240852434,0.7121857371291375
4850,0.5495514513215806,0.7023351013571107
4441,0.18296068064562696,0.37364458626602276
7196,0.28229380061882414,0.5778497937859569
6361,1.1842985414792424,1.9699111199399422
2422,0.3924774053266707,0.47344392083570186
3062,0.4536079523084704,0.778175950162971
6820,0.22691398469013066,0.6733173220105678
5253,0.7898102557667737,1.2379136256669887
6339,1.0660035817780522,1.8749635103396867
6905,0.5086113860820392,0.8612247037041182
4458,0.11190777916817332,0.30451825774160496
4283,0.667678026120032,1.232044225162478
6013,0.9277976937859532,1.743958950987135
3188,0.9759000729485331,1.5239194435193206
4526,0.5903401109771178,0.7288000738702531
7704,0.956010209139884,0.8625245534403907
2829,0.37390013366296965,0.8006589153691613
4807,1.0800619023436953,1.1075430615070405
4262,0.30600918008893807,0.580532423926562
6001,0.668253916554625,1.3317478975709187
5557,0.4495670937251801,1.0170870287210134
3399,0.38683763034897684,0.900230209032809
6356,0.8279835618670118,1.641312786725046
2592,1.176139625894732,1.6647975352902549
3134,0.843439537772533,1.2366407820384744
6739,0.17050973700481453,0.8811192550757699
4243,1.2000892476568634,0.9178072300107832
5856,0.6335084401014869,1.345230207714409
7732,0.8792211277504424,2.228524874429209
1582,0.5409666442244759,1.0839594418238003
4752,0.14713489501053162,0.3195946440563622
7646,0.6467209124167373,1.2563861114873267
6586,0.8887321598232473,1.6667576478585264
7120,0.1808839499222525,0.7449448970776253
3191,1.164362222909275,1.389501205130021
2000,0.8497686807088538,1.715758054905437
2798,1.113534669869292,1.0363280724617392
5251,0.8687990607849585,1.2379136256669887
5844,0.19307045262619071,0.8529020547321833
3174,0.4900545296697284,1.5251799434094355
6366,1.1581270111942181,2.151471896115689
6681,1.371531623624497,1.7811387007540294
2702,0.0869534120198116,0.3087592216335405
2127,0.1627900298611947,0.45779107564593063
6082,0.7383553883551567,1.314047948758636
5348,0.20580023704988687,0.5090442912417809
5077,0.6604033442689624,1.081161676685014
6689,1.3206210286948206,1.8174022972637935
4959,1.2747909848515049,1.7873008824605647
6704,0.6902315394749137,1.6712690312114993
6421,0.7355289505424534,1.8939018546320214
5172,1.0917576783170517,1.342741960702803
7341,0.2855716424702346,0.5429569824616445
5307,0.2926290394972137,0.40121930029369257
4342,0.9178787626865682,1.6991476399831025
3891,0.9085613195690782,1.4831329787417162
6333,0.7696649110048027,1.4719558850696046
6443,0.10032467294494518,0.9688790018408833
6150,0.2239882662385079,0.3732534915972545
5362,0.9093184234594143,1.0910894511798195
3346,0.5489203784359791,0.666114253917202
4514,0.576374538415792,0.8268567704046108
4522,0.7177531312942121,0.8342630871506392
5155,0.6982916681519316,0.7982487569073213
3965,0.9782782717129054,1.5508517229945162
6676,0.44003146933125237,1.5242523236851884
3811,0.6358029215169961,0.790559061828303
6762,0.28191992843429386,0.6457994053213268
2907,0.8772040830132547,2.077260194301213
7362,0.2232722008196545,0.41778845550743476
3581,0.7495649859271835,1.5035827024833943
5150,0.38090191825153646,0.8655054623855155
6459,0.1670359225577355,0.440687659282637
3152,0.9337285527281616,1.4391691584073154
6806,0.19630120547803334,0.28884680311244043
5178,1.0869890913153144,1.4356477287988558
7665,0.8631331635194833,1.2209597441706117
4648,0.9077652481959502,1.7527170730257642
3138,1.2793644055983446,1.131877588383117
5863,0.5394942065709832,0.8693436044430459
5375,0.5957615111402483,0.951266324315855
2914,1.3540115001199073,1.692107989455986
6426,0.9595930899102109,1.8939018546320214
7607,0.45572789403424646,1.2796392450876541
6880,0.7465740753687303,0.935360720002761
4224,0.5559766838069727,1.2305748879677014
5588,0.7356092237563353,1.3798327423986896
5005,0.30963588417129634,0.6189889415419915
1596,1.6181100721920845,1.7381397955874747
4755,0.14407919696342814,0.3010692866191313
5254,0.9268776355066652,1.2379136256669887
4227,0.9697456810208251,1.308359775576546
7152,1.2078327622231386,1.0135729863317573
3337,0.5761624318859925,0.6461227625606909
2328,1.6067118782752468,2.3936583317966216
3991,1.0302031986819244,1.4473796238257257
6192,0.5214405103651717,0.47514332018533906
4138,0.09564832280716293,0.2496433731996459
7639,0.7462819797684439,1.5808431598451718
6636,0.822269780976108,1.1772111867538377
5954,0.8350574723572768,1.0107032054974465
7029,0.4362087228992364,1.2064102598926385
3531,0.21111721043086978,0.4038407665223742
2617,0.6244241733782785,1.482248143745715
4282,0.5464951432696131,1.0891800667941498
5869,0.5023586876395753,0.8280099846229473
4148,0.41966889111258304,0.40174001105647394
7603,0.29891413696008073,0.7902046143048899
1793,0.35803293767882816,0.7380512542388057
3693,0.976696857704645,1.9067792064799978
5776,0.969972538064601,1.6281248364102499
2210,0.9809415924198371,0.8798528653580182
2475,0.733580734399589,0.9240781885861832
4306,1.0135385634860572,1.7350935379430341
4143,0.17557469020752353,0.3899061043511837
6224,0.43132277929400636,1.1208971705247674
5157,0.5851554588374449,0.7982487569073213
2203,1.0088384930555823,0.9596862542505219
4149,0.5883863667168766,0.40174001105647394
5419,0.7462819797684439,1.5316234566616491
7300,0.8281892768959751,1.6613594924564006
3389,0.4250721333051251,0.49750512788591444
2596,0.7996695301617592,1.800823702477684
1981,0.6950056679177274,1.985617975400977
2287,0.9253510908263868,1.3649519212227554
7186,0.26034731390323695,0.49032128490813853
5431,0.9330112789280848,1.0180400059044254
7044,0.29558504719484757,0.39221649899766
4455,0.18240364462342493,0.43218111845613527
5322,0.34600902226289737,0.4147003871907082
4287,0.8847743155109332,1.7426202153095047
3079,0.5795641774638479,0.7151761832678345
3150,0.9331839351308248,1.5533638713274218
2501,1.1109949350202284,0.9375862980249065
3422,0.8562951516517061,1.5776478372382277
7862,1.5307162665809126,1.353746753637888
2012,1.1401971205209784,1.2374534156241264
3926,0.8649935138012653,1.4242182297388537
6399,1.194772605627975,2.4014281698249738
3295,0.2631927314441286,0.4286237670973194
4935,1.20131137224831,1.5011077392734782
5664,0.4892318606372513,0.8293162902601159
7410,0.4996494350474575,0.5518152249625188
6420,0.7828268571968325,1.8939018546320214
6629,0.44423948092743104,0.8565125176000519
2967,0.2876814052900627,0.2559074099720064
7555,1.6456875368285897,2.082542847974714
3305,0.1974329150493236,0.6269050887133821
2820,0.26961739324831363,0.6749300657411075
7009,1.3213306107308018,2.0220915697577286
4448,0.14243767586627504,0.37810830355144603
5905,1.0498754280605773,1.6723582615330321
5197,1.327635004586016,1.8336284748677802
6675,0.6523118854752464,1.2170063401951254
7197,0.35039251692919643,1.0720963697035424
2995,0.12815924527494058,0.31454993746285415
7761,0.6928463359769286,1.3340817401424592
5452,0.3309609414647332,0.5931366305872913
6230,0.9200715409284264,1.1899908599119358
6482,0.1480970573184037,0.3082966490761841
6753,0.23707708897292576,0.5485083437476522
2385,0.2126262638531734,0.4767013071284424
3049,0.4894144278400686,0.8220132639579238
2253,1.0122331522458883,2.0495132187115184
7331,0.13234199805101915,0.7771292411824633
6251,0.4609061884593454,0.9048645629416429
7535,1.345298525337417,1.950085704790929
5802,0.9314966701473842,1.5493139661829456
6751,0.2285474097348307,0.5485083437476522
2875,1.138162399266841,1.6127140689923494
3925,0.635422785667229,1.4242182297388537
7855,0.5265761689729921,1.1489627717356594
3374,0.4514598853572147,0.7764470361064739
3825,0.7873605753018306,1.4874202969258323
5955,0.6148260564364049,1.0107032054974465
2736,0.5926196520170312,1.246173184692568
6223,0.3897384692091352,0.9789845027397093
6631,0.6784203338795446,0.8780337485888526
3069,0.33720235746364974,0.869599665580465
6282,0.6638209955392943,1.9255151268650417
2500,1.0046455195539763,0.9912501239081628
7059,0.21659808821731813,0.7050379895643285
6286,0.7847927005481946,1.6684939442309183
3043,0.5456199654989444,0.8774318867490731
3851,0.25219442658985214,0.979438838336798
5143,0.3760106740231841,0.6690913856248283
6554,0.8267066298880357,1.0331884401073173
2870,1.3360654083107502,1.8623615474316035
4549,0.6778237875363878,0.9559634391636821
4904,0.7204649903616782,1.7858607972622125
2979,0.1387275332204791,0.4035499301914989
6146,0.23155723781592724,0.3732534915972545
5223,0.7166761114846597,1.7225704071675938
4844,0.6687718719840774,0.7969345707325052
3327,0.5167514354078677,0.7475759650077619
5963,0.5674155918439188,1.115865432998957
2646,0.12165899035529974,0.7800483873423217
3948,1.2290366012295566,1.6277123994384959
7173,0.43964742125524103,1.2653335856230639
2070,0.23481527418089146,0.5330646690956956
6498,0.3240184179567039,0.4102953938983978
7705,1.3154821313133964,0.8625245534403907
7712,0.6403084939149241,1.1354463550023006
5585,0.7986893600160984,1.3798327423986896
2329,1.7762475658417527,2.3936583317966216
3747,0.7045157623921048,0.9917277125084307
5516,0.7460012458837052,1.5684177206241694
5119,0.9822818858112949,1.8406525645106449
6002,0.5979182368125892,1.5122780231159967
3352,0.4686291053603733,0.7915539722794073
4186,0.8863682625225211,0.9645934802166567
7376,0.2600346762432205,0.4263678362172282
7023,1.05157547213763,1.2404032655416404
2813,0.27712828940689216,0.6693026509007073
7259,0.9126315821002255,1.7725371654274347
6718,0.8688572508915129,2.045460004225333
5245,1.0602690493987645,1.7473766791720937
3873,0.6590942245816149,1.4741217137113891
5416,0.5435168818064123,1.9857831797007914
6509,0.1397447877509623,0.28357873074269146
7914,0.9208463281486521,0.6240770139563292
4456,0.18414382962701167,0.4177754187962166
6252,0.43765465463478315,0.9610103738075331
3535,0.19580703616107153,0.7851547379151969
6603,0.6750116004510747,0.9335832983805379
6591,1.3397490155005776,1.5847017613946366
1694,1.0192925872286844,1.1975567466456705
3578,1.098512079199982,1.5610205177681578
6418,0.8688572508915129,1.826529448254435
6847,0.5844244000272114,1.0047696346944044
5438,0.46863684970762653,0.89113716474349
7789,1.430624874682985,1.2785753146166186
4685,0.6868673601357207,1.371462618771922
6659,0.9583952309194764,1.328793294272254
7504,0.581138947939797,1.1872927746017912
1695,0.7919064379621465,1.1975567466456705
5648,0.817703585583517,1.126335306181084
3938,0.8446201500183336,1.6562526036499081
2845,0.9337824848975558,1.198555576332299
7616,0.43901464285260017,0.7681986516374365
3901,0.9246313861355944,1.3619453628142633
3567,0.835005430369284,1.9716809178393915
6045,0.9540516780713051,1.8572596177098828
3802,0.3276673850229689,0.7418444622814088
7666,0.6951975338139847,1.2209597441706117
3241,0.1652393849004398,0.42129641075440943
6035,0.8856148855400958,2.2636405515044147
6925,1.2140044148742615,2.031509960602843
4139,0.10656109835377908,0.2496433731996459
3369,0.7293866447966825,0.8550926967897069
2224,0.3814986267514551,0.6761818882737808
6518,0.24926266140712963,0.5384657321225407
4842,1.0395003996088468,0.806253373415211
7026,0.7061882541527991,1.2064102598926385
4546,0.7184680886171325,1.2344972530523117
7454,0.6966467064944295,1.0541530969329402
3837,0.2023751407580033,0.39385668303668736
6006,0.8372513991297105,1.7367132812352244
2519,0.4584486370953299,0.5851401099266496
7213,0.8281915362553646,1.527414318367261
4828,0.7418602859713476,1.391545783372286
6173,0.19376730464749795,0.2862084634296137
5225,0.8830747525081589,1.8228958053991433
5927,0.7387235647354664,1.8857531823490685
4471,0.24150325318685759,0.41716269058566785
3089,0.505777240015005,0.6712314603077825
4664,1.023416248933072,1.598163653478923
5521,1.2185656347259484,1.7117721017226484
5052,0.24930881140428815,0.36575931913026566
4867,0.34135669641282623,0.40511295363355854
2844,0.8882010352388284,1.198555576332299
2953,0.24132671204979128,0.562157728682879
5215,1.475582673529296,1.7250422416487996
7507,0.6119709724890304,1.9597702592978419
2327,1.7012738782920696,2.3936583317966216
5281,0.13782209414397173,0.3509218845332379
5840,0.10381101541995726,1.0555654684441313
5083,0.7648202235658755,1.002641599627506
7569,0.7994660411773479,1.2284094198612032
5854,0.42930956625792055,0.6924239278154418
5184,1.497020102402456,1.6348257800632429
2249,1.18707878064291,1.9050041298506932
7168,0.887917912527626,1.241495647490095
6853,0.6360212103114817,0.882802484978806
5409,0.6247359683979119,0.9942232005531725
7306,1.1330289636776627,1.6633006453910835
2206,0.7448368244508159,0.9264034425452506
7918,0.10876451593486895,0.5391159923124261
4364,0.7153718228638554,1.7033088344469827
6553,1.0171072015192353,1.0331884401073173
5763,0.7273974226385878,1.4753313689043017
2202,1.044684644977504,1.332955460803576
6462,0.3699699654868182,0.5979792899115718
2601,0.7972647891315741,1.5917911421138757
5025,0.14531655000019444,0.42128334139788304
7703,0.8197631148075352,0.8625245534403907
3662,0.8134505048170194,1.086441077708979
5055,0.19907900485072252,0.36575931913026566
2716,0.2566416345044254,0.4010098179637609
6155,0.19903644596788833,0.6522528762376435
7625,0.29289436831024035,0.831335010647646
5674,0.4753651629493573,0.9018587535676885
3141,0.7654396330015543,1.131877588383117
6380,1.122704977991315,1.946411983691174
4155,0.15295661619262851,0.32784704802541914
7205,0.49276323720778187,0.5879985085047161
5097,0.5031213420924702,0.6030082171068686
4690,0.7510752651883972,1.2430347843014098
6190,0.32849804395835525,0.47514332018533906
7061,0.24733262568069186,0.738558921181151
2383,0.4025936853189114,0.5015005873438692
3758,0.8414398775961145,1.8350211602837256
4975,1.2129209497718698,1.5931939728614517
2852,0.9509371746203694,1.5763987135268924
6453,0.2817694636600188,0.4075566332088904
4684,0.7973788985960563,1.5904473295820543
2773,0.6436438788414637,0.8148333703711808
2434,0.6031966479429872,0.9253047067793123
7434,0.5894486580023581,1.029078632364317
4943,0.85139300946248,1.5558400022762437
3205,1.2767980723903534,1.6260682627547027
7614,0.674832849392545,0.8173562294758707
6700,0.9944903161976941,1.6712690312114993
3505,0.1285424209455612,0.963916560542831
5687,1.2257956109006518,1.6349863236376299
7647,0.6896225064855436,1.2563861114873267
4271,0.38177895236215625,0.6526891645139268
2478,0.4200903643177826,0.9810775691378728
6804,0.1975345729423604,0.28884680311244043
7335,0.31995586915201507,0.5508013002532024
6665,0.9828842250512889,1.2791404252031118
6940,1.3260748783079779,1.881748124495816
6559,0.9899074725915704,1.109918406439583
3245,0.2067573331753007,0.42129641075440943
2696,0.41198474720890516,0.444493975474298
2174,0.8107322220010126,0.8919187570794087
3084,0.4933728580442592,0.6508207340941314
4330,0.861979869839852,1.2378476491825332
3238,0.12798380001017337,0.5217083037661085
3004,0.243944602566295,0.36351710157156497
5128,1.3536504718976312,1.064911615764093
3857,0.9822673736564561,2.2686519177710665
5764,0.9266910758630145,1.4753313689043017
5832,0.8731264761175034,0.9571429800598203
3321,0.7510205287534285,0.8300097975008575
4692,0.17420556933585962,1.2430347843014098
3320,0.5700714262583917,0.8300097975008575
6121,0.970388143915722,1.513789561588776
7088,0.5007778345704736,0.46977293801850056
7050,0.2367742944168589,0.3500456634875642
6023,0.9108844533304902,1.3200687165804976
6742,0.18925778001833016,0.7170373129005752
2456,0.8393786958341312,1.0035486536178913
7268,0.5256004425583756,1.6834495683770465
4036,0.9217637394271728,1.6392874200706682
7054,0.21620012966707808,0.46914320081000854
3268,0.157114943730806,0.49209918408290626
4389,0.9517750569099788,1.2913243481855583
3977,0.9647529295566579,1.2397824381372349
2527,0.5014586469660108,0.702241308283866
6826,0.7804825421194157,1.8689796259821074
3667,0.911941762531429,1.086441077708979
6114,1.0076879585576262,0.9979346983164384
2976,0.16535854734135202,0.23943109763282897
5858,0.8526431383891403,0.8882731021525325
7499,1.0301215368236434,1.1751746532499219
3433,0.7175088086279237,1.0670294982393267
7063,0.24807289571841043,0.7500420778613233
4259,0.6080302909720594,0.5838463756355207
4200,1.0493972799089448,1.0950714076142085
4147,0.31707393234724723,0.40174001105647394
2380,0.3783017944152224,0.6816591851496103
5344,0.16714612184359146,0.45668613390236823
5222,0.5256004425583756,1.7225704071675938
4699,0.15367689671579293,0.7561488101211479
5530,0.4156938282279826,2.463340148176059
6384,1.411622185536631,1.9597237292995047
7310,1.549905123767946,1.2171563117075777
7593,0.7524923033522555,0.6008404824177043
5983,0.6891052690093689,1.6603862348596592
6808,0.20288489310583557,0.4470726433815709
3212,1.1723790323066046,1.6269721464306703
3315,0.9078695567649144,0.8369313510478276
3939,0.8093561650484165,1.6477765537220443
7909,1.2725964201072173,1.1056306118151624
7052,0.15446666964886055,0.371807850747935
7276,1.2288179113111224,1.2977704537120711
6392,0.9360648116875411,2.0009850882799443
7488,1.1280158205537807,1.3158754496483531
6502,0.1345479613243377,0.3903879267438151
6901,0.39420249423961284,0.7240304816216309
2350,0.18317590314130489,1.3399511724857747
7010,1.5376022702144578,1.9113456174344916
3580,1.0319418557526832,1.5610205177681578
5218,1.1037985455644308,1.7250422416487996
4232,0.8314289223531196,1.3823980267773985
3323,0.6752356729886462,0.8092813582490594
5812,0.6939127822447724,1.7718470123160177
5293,0.22465013290279345,0.5582592838750119
3436,0.8822276919434487,1.0670294982393267
7525,0.5134662724967818,1.1794315850409969
3813,0.5151688714543532,0.7987862363108719
3996,1.2510513080382841,1.3728594110182966
2255,1.4023577669950535,1.997043761763692
4337,0.9217530289562508,1.3809827208707643
2234,0.5105683811320343,0.8340403248472722
4268,0.4418874989465386,0.525800883451475
6411,0.5304308844131281,1.74562507336732
1547,1.1514398277919742,1.4472201659743322
4006,0.8081964688167858,1.835868081954156
6663,0.5707212163887231,1.2791404252031118
4520,0.8114610852369182,0.8552675758039924
4382,0.9124394225719175,2.270574191966158
7754,0.8708774231631737,1.4656467726663887
4320,0.6115793239686109,1.807205329685771
7784,1.241296928814875,1.274373351554993
5642,1.102378352334006,1.5833325190958747
6375,0.9173955539676374,1.9292230568012152
3804,0.30709521741841966,0.7511989897016808
7679,0.6428682101029902,1.1953682898233764
6761,0.29586654895280134,0.6457994053213268
5261,0.6671130543045501,1.6203801093107237
5610,0.7229527559851314,1.1643818867108227
6708,1.0634250979760957,1.9114518393991045
6212,0.16183650749008896,0.47058256476827853
7012,1.5754350683844855,1.9113456174344916
4288,0.9641546130009769,1.7426202153095047
6568,0.5795147494431068,1.236726645005632
3582,0.7495649859271835,1.5035827024833943
3016,0.260052834917302,0.8229233017259997
3386,0.3338088855468913,0.49750512788591444
3445,1.1026727538412548,1.538923701267771
3347,0.4182822946485591,0.666114253917202
5887,0.3549283665635604,0.7260965562513745
6033,0.4470046924273124,1.5128699706817563
4952,1.0597181620869751,1.7940621139692534
2888,1.0856827193732326,1.6347531917412483
4928,0.6337102405939931,1.7923694274170177
6991,1.1413307239466517,2.165825785445097
7055,0.18774361992216482,0.47794442820078775
7129,0.47042474898130804,0.5050886799562662
7737,0.7529332009754296,2.0129018036028605
4948,1.0427151150094083,1.5718745678774506
3193,0.9931325098404881,1.3756868213777544
4128,0.37803336468102744,0.5528073599683891
3899,0.8689021964596905,1.3619453628142633
6341,1.2804406961883097,1.6516235474193959
6115,0.7139436437484056,0.9979346983164384
1769,0.11742796290975095,0.5288180085577765
4208,0.7445962579279093,0.9700754899804889
3402,0.7647929676365176,1.0902410318689746
3380,0.3628638515633685,0.5519792308034481
3243,0.24503740202569985,0.42129641075440943
7324,0.13745752985225318,0.9259338729088131
5837,0.5265043859754028,1.0555654684441313
5834,0.8528424622389358,0.9571429800598203
2248,0.6559553508009337,1.7879091590287561
4252,0.48198779560626065,0.8021040985799079
7708,0.3430804963985466,0.8625245534403907
5518,0.7666804188307091,1.5684177206241694
3686,1.4907554404478993,1.8399963156087322
4995,0.16231663889456135,0.5014251915409026
5973,0.9844578348343369,1.7206046662374228
5566,0.5582204780487299,0.7445303704103454
5861,1.0244943855278288,0.8882731021525325
5670,0.34539641892318274,0.8286049116126217
5693,0.9748336381952558,1.5508517229945082
3570,1.044684644977504,1.844378705493448
6868,0.5153145553588362,0.9029622348596743
6549,0.5515772027546131,0.9281253753320131
5991,0.7763221635845389,1.3057913552651035
7296,1.107273675388399,1.7074933955830016
6730,0.9882670071707585,0.9797617141408174
4398,0.13653328798151196,0.9044429551860897
2892,0.7495649859271835,1.545916926728035
6815,0.18610158064071997,0.4470726433815709
5825,1.0340141152575517,1.4448152176851101
7550,1.651445647689543,2.3915105010198885
5786,0.7970858906744771,1.2307856967452686
4184,0.8326184346054771,0.9945254441941009
2550,1.0715382242769411,1.4011925074555964
2286,1.184697755518185,1.3649519212227554
4432,0.27650026152280166,0.5036046104151701
3519,0.20821660606317335,0.5990016699670767
7033,0.10175553792819136,1.2064102598926385
6727,1.4503015286158756,1.1724049726381416
5967,0.7559708340960392,1.1980502635349597
5337,0.12598049067627712,0.43310585933058915
3709,0.703393927908159,1.3607824691092023
6430,1.5507130607314064,1.5228614097000153
7474,0.4385192200890407,0.7518531410989101
6599,0.8206803678634219,1.2992909772372727
4631,1.1197888105218834,1.4798778420190872
2962,0.26576279214321824,0.6103258330841116
5099,0.43941117843710964,0.6030082171068686
4652,1.0946341055892423,1.6177015472053724
5624,0.6925428045556169,1.0701661664334647
4808,1.2597346478949338,1.0077488989428756
7970,0.8609658433304019,1.4176647906781643
3031,0.5274616326169127,1.0224706202580711
6634,0.6159658974674105,1.0278799911789835
3126,0.9755039372445459,1.2695529556048868
6754,0.3145111130547193,0.5941031902987608
6969,0.8350834376635693,1.3077173580306312
5545,0.7918033326954688,0.462458947341154
5265,1.0048995168746602,0.8469578327996772
2593,1.013305661950208,1.7117294380049295
6849,0.7346192132373022,1.0047696346944044
3437,0.5812828135746756,1.0670294982393267
4812,0.6308655106596617,0.9183547511446647
4365,0.6636398895728443,1.7033088344469827
3056,0.4014688704972467,0.7721972754278125
5689,1.078917995645155,1.6349863236376299
7479,0.5515646194575323,0.9361284585600951
7861,1.302993010301636,1.353746753637888
6588,0.845154254728516,1.5847017613946366
5074,0.6757471985855413,1.1182181957508333
3157,1.1733884382325952,1.1986714705936663
4391,0.8500420767166849,0.960083324401065
2752,0.7168372079671458,0.7754646909032995
7411,0.4536868487859447,0.6061926066168936
6326,0.5848080910721876,1.0302004508858076
2969,0.2335348250296997,0.25106517132036255
3840,0.45673995980387805,0.39894801013218995
3525,0.36528282459411593,0.4038407665223742
5192,0.8767352863854774,1.7569452290625547
2973,0.12226537165972717,0.23943109763282897
5959,0.4072022782241879,1.115865432998957
7327,0.18453950905522792,0.7771292411824633
2649,0.10650783353810943,0.7071263743382056
7619,0.27373515978922136,0.8173562294758707
7735,0.8480686183679257,2.0129018036028605
7582,0.4639380644626623,0.8203142289225246
6993,1.3988742123914846,2.2987384875199814
7950,0.5932659314622167,1.3020068505209104
2533,0.6386955241033312,0.7857426972707695
3624,0.5096980060263112,0.7451377531135787
6400,1.4665695370946181,2.4014281698249738
6964,0.9437594691506527,0.0
1578,0.40455533710234687,0.8461272244011556
5806,1.0274867096682754,1.5493139661829456
6819,0.18505977001080284,0.4623835167030234
2850,0.8739331243264351,1.5763987135268924
3698,1.2022279093261121,1.4456037796236147
2791,1.0307802993759325,1.7379220709858763
7591,0.6000845455263312,0.6008404824177043
7165,0.24181323619473954,0.8523050803829458
3057,0.33720235746364974,0.721525284576385
6594,1.059820986694751,1.5303854255436746
7053,0.14909748348232993,0.40325282286579756
6473,0.2696434884687916,0.34875695420616265
4563,0.38121096879721716,0.5779822409667009
4202,0.8042871106941789,1.0339858391929513
5667,0.4611924648380618,0.8497386952394365
4877,0.4996355077917669,0.8753985123579235
2246,0.7239151592336686,1.35110894280773
6248,0.5579657755268197,0.869669325803066
2918,1.1922997268634998,1.692107989455986
6296,0.823042201268976,0.8795827911902686
3401,0.48012295290745066,1.0660340404857236
3856,0.8468873390655254,2.2686519177710665
2712,0.1725601987399796,0.36745964994190866
3153,0.9592126025861913,1.4196938148589595
3859,1.1375073673814082,2.030507531504118
7340,0.37789613047777443,0.5429569824616445
4046,0.8271060950530715,1.8747196878598567
6800,0.1282889997736909,0.23246899165598528
7795,0.8824434197373576,0.9695159453741873
5368,0.6220195891629178,1.0620736120168393
1980,0.8702421092926681,1.985617975400977
7920,0.1336130531700491,0.5853868878498792
2479,0.4735008885394832,0.9810775691378728
3850,0.088547347483666,0.7518462472542505
6655,0.8176857443381577,1.6568842614830788
3563,0.8711999077536248,1.8170878783001898
6097,1.2102374757455445,1.4902436029340527
7551,1.6666666666666636,2.4680505053708064
5310,0.2131097505174356,0.3573410191846565
6612,0.4589961230252928,0.7172159830244949
2863,0.9133468471395401,1.790590390574994
2599,1.3121913445270579,1.679814845195285
7317,0.6000845455263312,0.8682056507016939
2840,0.8510526049326246,1.198555576332299
6074,1.0016461647988795,1.579547323033646
1579,0.44630483493201895,1.0023384258039518
6902,0.38113569247663526,0.7905309536922407
7392,0.2576621218562265,0.3123102892137509
4299,0.8541907324486656,1.3893791357968424
7728,0.9256939571841393,1.173380093776883
4647,0.6187030854736775,1.7217986109438543
4304,0.7473959846716524,1.6477765537218558
6263,0.5772628491987524,0.8653306053502512
4822,0.48111950480633575,0.9297767201886012
5522,0.9813130016897115,1.7160486372931822
7292,0.9637142977117328,1.675110396398478
6904,0.48012295290745066,0.8612247037041182
7429,0.5548286718796924,0.8709943106988632
4450,0.29786458269597516,0.437950823558514
3211,1.0664364147640748,1.677971294767057
3849,0.14312090583388676,0.6457611825203114
4136,0.13085977446281713,0.23837369174791587
1572,0.6739671708679067,0.676613397295414
2366,0.13234245941086353,0.3853669825614598
7976,0.5504564384316547,1.4176647906781643
5635,0.8339022166013337,1.9069975413128453
7760,0.7998808043592628,1.5801105695106719
6036,1.1833755959072823,2.2636405515044147
6044,1.209503086547632,1.8572596177098828
3823,1.2129940076520291,1.7226422851240768
3424,0.8510051607988736,1.6181263912936077
5500,0.6204753812416136,1.3591055744672311
3897,1.0605393032924606,1.3619453628142633
5875,0.23211027503070553,0.3833724286828664
4003,0.8204687059297051,1.5358341060335583
5277,0.17803155457088843,0.7947889868624894
3427,1.3146843962443588,1.5244668961656396
4038,0.883102329367796,1.6416721263807543
7278,1.075279962304408,1.2977704537120711
2834,0.513648766459343,0.8755904764433614
3426,1.369278433961942,1.6181263912936077
5418,0.6366254270225845,1.5316234566616491
4886,0.7348333017285124,1.1477877309986517
7864,1.1570325953590996,1.353746753637888
4245,0.6741452152485288,0.9178072300107832
4545,0.803154889965604,1.2531905372093406
5868,0.624971962999922,0.8394241692557373
4318,1.1170876760070914,1.9251980050285176
5318,0.1549907787036229,0.3780357177359755
2267,1.3313857468166401,2.4692069293132155
5562,0.6703858994871001,1.3752476614503624
6049,1.1810121979127608,1.9468217511806258
4751,0.1559680936418363,0.35394537599105175
4517,0.5530692735388172,1.0050402688127276
4718,0.27913641852454063,0.63863435107314
4834,1.0898311835225494,1.5586803966162024
5144,0.35600870632746345,0.7342380590397886
5767,0.793192678142795,1.4753313689043017
4246,0.7989817433950811,0.9178072300107832
6182,0.1814674898799379,0.26114312826123415
2628,0.5070658999666153,1.2351643788333833
4942,0.7910866502221442,1.456943658297135
7597,0.3241393701035157,0.6008404824177043
1956,1.194333423712546,2.1518951169380136
5853,0.45763424129475994,0.6398127694906783
7174,0.4820770104379453,1.2653335856230639
3745,1.0420061053248497,0.9917277125084307
4713,0.24390733392622324,0.6717207289341045
2811,0.21485396611085403,0.6839536247500068
6143,0.18440651304556785,0.5197074907250201
4358,0.9931076951269907,1.2921546536192403
5232,0.9434816667794949,1.377996974203015
7149,1.2071875190219632,1.236058688330262
3297,0.20774385906322498,0.4629233977612526
5785,1.1149563831131901,1.2307856967452686
6620,0.3055249218169323,0.68553379049922
5660,0.6034742539339769,0.8464345731456931
3242,0.17217149582437705,0.42129641075440943
7284,0.8961831754439243,1.717448753763335
2917,1.094441907842561,1.692107989455986
4285,0.7615457741099445,1.5308507323004708
4776,0.43036065155972153,0.9552490024340788
