1.2955743619190128,0.9364410943434238
1.2108609702772293,0.9364410943434238
1.1404604946504924,0.9364410943434238
1.1404604946504924,0.9364410943434238
1.1404604946504924,0.9364410943434238
1.2745917020233066,0.9364410943434238
1.2955743619190128,0.9601995280565677
1.6020726197251782,0.984649101705182
1.6020726197251782,1.0405957993800832
1.6020726197251782,1.0405957993800832
1.6020726197251782,1.1335546866419475
1.3833137077425306,1.1882701253319101
1.3863149810644935,1.2974590558842611
1.3863149810644935,1.2974590558842611
1.3863149810644935,1.3180451403378606
1.3863149810644935,1.3275863386949223
1.3863149810644935,1.3275863386949223
1.3863149810644935,1.4793738045395206
1.3863149810644935,1.4793738045395206
1.3863149810644935,1.4918758376730643
1.3863149810644935,1.71422177849331
1.3863149810644935,1.71422177849331
2.1052950013409695,1.71422177849331
2.1386454997972986,1.9197885411716344
2.480393421846093,2.0459927491342786
2.806673403245193,2.2662969345656263
2.743713041489012,2.4896156691604645
2.806673403245193,2.4896156691604645
2.806673403245193,2.4896156691604645
2.623768064078063,2.220260586413667
2.3966969215372744,1.646566005012164
1.873344455268029,1.5793780666814772
1.873344455268029,1.239836612380093
1.4006951386831406,1.239836612380093
1.4006951386831406,1.2191174507609481
1.4006951386831406,1.1178640556005135
1.2080992435478977,1.1102199890261342
1.2080992435478977,1.0193107643980075
1.1387274747795182,0.9617798256978228
1.125485976662115,0.7853571973418584
1.125485976662115,0.7853571973418584
1.125485976662115,0.7853571973418584
1.125485976662115,0.7853571973418584
1.2080992435478977,0.7853571973418584
1.2080992435478977,0.7853571973418584
1.2080992435478977,0.7853571973418584
1.2080992435478977,0.7853571973418584
1.3278728477675352,1.0016055482409334
1.3843450739273966,1.0788110432091693
1.5123182300850155,1.0788110432091693
1.6339160488184004,1.1758763358322923
1.6339160488184004,1.232495206448454
1.6339160488184004,1.4016641830528733
1.6339160488184004,1.5429931044190213
1.7053899906599619,1.5429931044190213
1.9889744274748997,1.84625078065095
2.3490322858055412,1.9363251976125642
2.435728197502528,2.111757457885871
2.435728197502528,2.4292840476177635
2.435728197502528,2.4292840476177635
2.435728197502528,2.456542380102525
2.3490322858055412,2.456542380102525
2.3003978414044863,2.456542380102525
2.0331939573831375,2.456542380102525
2.0331939573831375,2.456542380102525
2.0331939573831375,2.697175627342968
1.945917110703391,2.8197943860787897
1.9268207174890122,3.5143026608443324
1.9268207174890122,3.7050263321879564
1.8909625504351038,3.645878432183609
1.8220432668982331,3.645878432183609
1.7218613120763542,3.645878432183609
1.3510495085837941,3.664810853462448
1.3510495085837941,3.7050263321879564
1.3510495085837941,3.664810853462448
1.3510495085837941,3.5302538450761487
1.3324348244814666,3.5302538450761487
1.3324348244814666,3.5302538450761487
1.3324348244814666,3.638878817706603
1.3324348244814666,3.638878817706603
1.3324348244814666,3.638878817706603
1.3324348244814666,3.490373629063769
1.4972984240742604,3.490373629063769
1.8875563309515364,3.490373629063769
1.8875563309515364,3.6303461536746116
1.8875563309515364,3.638878817706603
1.8875563309515364,3.7319664608681546
1.9325982354290814,3.920819593659821
1.9325982354290814,3.920819593659821
1.9325982354290814,4.130600105877656
1.9325982354290814,4.130600105877656
1.7215470751346147,4.130600105877656
1.7215470751346147,4.228031590036272
1.7215470751346147,4.218500474554378
1.6591893542303637,3.9873757359684086
1.6442669213922598,3.8963865077984567
1.6442669213922598,3.8963865077984567
1.6442669213922598,3.66624989585716
1.6442669213922598,3.40269001247058
1.6591893542303637,3.40269001247058
1.7215470751346147,3.40269001247058
1.7215470751346147,3.40269001247058
1.6966815630170233,3.585363176184398
1.6966815630170233,3.585363176184398
1.6966815630170233,3.6549993823023366
1.6966815630170233,3.7087204107843665
1.6966815630170233,3.7087204107843665
1.6684150346988562,3.7087204107843665
1.598853531285234,3.7087204107843665
1.598853531285234,3.932409233548765
1.598853531285234,3.6412895010838398
1.598853531285234,3.6412895010838398
1.598853531285234,3.6412895010838398
1.598853531285234,3.6589753717940394
1.598853531285234,3.7087204107843665
1.598853531285234,3.6589753717940394
1.9021514959264825,3.3162779081383342
1.4125404251670548,2.83591270424671
1.7431467576364823,2.540696497861792
1.9021514959264825,2.1316760437937146
1.9039594711922874,2.0508610349839955
1.8261506400904528,1.8753310519761233
1.8261506400904528,1.8753310519761233
1.8261506400904528,1.8753310519761233
1.8261506400904528,1.8753310519761233
1.8261506400904528,1.8753310519761233
1.8261506400904528,1.8753310519761233
1.7475191128946406,1.8753310519761233
1.8261506400904528,1.9769977775866967
1.8434466401483858,1.9769977775866967
1.9039594711922874,2.174145740103784
1.970417938112868,2.4037548910289788
1.970417938112868,2.4037548910289788
1.8434466401483858,2.2026090161596623
1.8434466401483858,2.2026090161596623
1.8434466401483858,2.2026090161596623
1.8434466401483858,2.2026090161596623
1.970417938112868,2.2026090161596623
1.970417938112868,2.2026090161596623
1.7734057679778699,1.8587196563675237
1.7734057679778699,1.8587196563675237
1.7734057679778699,1.8587196563675237
1.7734057679778699,1.8587196563675237
1.8262671703613955,1.9448273313738627
1.9340583977637664,2.577903761408157
1.9340583977637664,2.621560944758304
1.9340583977637664,2.621560944758304
1.9340583977637664,2.621560944758304
1.8867352318654032,2.621560944758304
1.9340583977637664,2.7288495652561426
2.1047363522219613,2.910429397638818
2.124815260531927,2.910429397638818
2.504323516012583,2.910429397638818
2.1853607546799028,2.475484499095741
2.1047363522219613,2.4293222106074817
2.1047363522219613,2.069736041309446
2.1047363522219613,2.069736041309446
2.1047363522219613,2.069736041309446
2.1047363522219613,2.069736041309446
2.1853607546799028,2.069736041309446
2.1853607546799028,2.069736041309446
2.1853607546799028,2.0694134838886735
2.1853607546799028,2.05360130792533
1.9172201714992905,1.8572762663218871
1.8360510548936946,1.595869700456351
1.8477524283398405,1.580883345437235
1.8360510548936946,1.181549719462702
1.5404754044675262,1.088056223443248
1.4760895382645272,1.088056223443248
1.4284745005474082,1.0816815159634627
1.3936658178552737,0.9901365356620717
1.3545626758372025,0.917282747141902
1.1516143748236776,0.9138979503429351
1.096150936968634,0.9135517190250778
1.096150936968634,0.9042388362970332
1.096150936968634,0.9042388362970332
1.096150936968634,0.9135517190250778
1.096150936968634,0.9138979503429351
1.096150936968634,0.917282747141902
1.096150936968634,0.917282747141902
1.10810959961501,0.917282747141902
1.1415892559543814,0.917282747141902
1.4102726396426095,0.9314438441158426
1.4939775836266669,1.1289920973982333
1.4102726396426095,1.254238294833922
1.3466965046334656,1.4158348644639485
1.4113293070964772,1.763393768837235
1.5188247737544658,2.3297959861114745
1.5188247737544658,3.217571608877427
1.5188247737544658,3.7111413863146794
1.5188247737544658,3.578824969571264
1.5188247737544658,3.3978780637139847
1.5188247737544658,3.3724231279806216
1.5188247737544658,3.3016369758900055
1.5554886022228167,3.217571608877427
1.5701779156640785,2.757450484833381
1.575192579901281,2.09832013692602
1.6265187900860543,1.6134788718576094
1.6513207843252962,1.3552728180640443
1.8045258268790123,1.3552728180640443
1.8196336355617375,1.3552728180640443
1.8196336355617375,1.3552728180640443
1.906595898132138,1.3552728180640443
1.956794213122987,1.3552728180640443
1.956794213122987,1.3552728180640443
2.121385531169577,1.3552728180640443
2.1650792485607675,1.3552728180640443
2.244083038564122,1.3689289804606208
2.3839096058975833,1.9182467612159997
2.4345889445988744,2.2837297614078533
2.5393821558971075,2.615001225217354
2.6844253723709657,2.6898562408400384
2.956122562587225,2.81065869931261
2.956122562587225,2.81065869931261
2.956122562587225,2.81065869931261
2.6662867493032407,2.81065869931261
2.6662867493032407,2.81065869931261
2.6662867493032407,2.791759786903674
2.5108570963692443,2.791759786903674
2.5108570963692443,2.791759786903674
2.5108570963692443,2.791759786903674
2.5108570963692443,2.791759786903674
2.5108570963692443,2.791759786903674
2.5108570963692443,2.791759786903674
2.5108570963692443,2.791759786903674
2.603241493834625,2.791759786903674
2.4902269785196953,2.791759786903674
2.4902269785196953,2.791759786903674
2.5108570963692443,3.0932709042413378
2.570307008119599,3.684282193862467
2.434027469574955,3.684282193862467
2.434027469574955,3.4629773786463076
2.4173011664766126,3.4629773786463076
2.4173011664766126,3.684282193862467
2.4173011664766126,3.684282193862467
2.4173011664766126,3.893482342679184
2.4173011664766126,3.893482342679184
2.434027469574955,3.893482342679184
2.434027469574955,3.893482342679184
2.0666302586163314,3.893482342679184
1.9856972705886304,3.893482342679184
1.635174850422361,3.893482342679184
1.635174850422361,3.893482342679184
1.635174850422361,3.9246631091523807
1.4983233376744418,4.034896349138788
1.4983233376744418,4.034896349138788
1.4983233376744418,4.034896349138788
1.4983233376744418,3.9346159323043746
1.4983233376744418,3.8091898834164644
1.635174850422361,3.6425380765717246
1.635174850422361,3.6425380765717246
1.635174850422361,3.8091898834164644
1.4983233376744418,3.8091898834164644
0.0,3.8091898834164644
0.0,3.553105915348739
0.0,2.7649311164261556
0.0,1.9899680937895432
0.0,1.8701037156643643
0.0,1.8040183087643686
0.0,1.684460384570437
0.0,1.5753821348967427
0.0,1.0234206890181339
0.0,1.0234206890181339
0.0,1.0209103738913639
0.0,1.0209103738913639
0.0,1.0209103738913639
0.0,1.0209103738913639
0.0,1.0209103738913639
1.4905070937360125,1.0209103738913639
1.5251217706951778,1.0209103738913639
1.5597327200301125,1.0234206890181339
1.684460384570437,1.0234206890181339
1.8040183087643686,1.0209103738913639
1.8040183087643686,0.0
1.8040183087643686,0.0
1.8040183087643686,0.0
1.586834035566428,0.0
1.5597327200301125,0.0
1.4905070937360125,0.0
1.5597327200301125,0.0
1.5753821348967427,0.0
1.5753821348967427,0.0
1.5753821348967427,0.0
1.446690013048395,0.0
1.3931832185644688,0.0
0.9704659957968758,0.0
0.8873537804718814,0.0
0.8873537804718814,0.0
0.9704659957968758,0.47786020590365286
1.0552181719030438,0.6296490437693872
1.0552181719030438,0.6296490437693872
1.0200409316893235,0.7255762687256502
1.0200409316893235,0.7255762687256502
1.0200409316893235,0.7255762687256502
1.0200409316893235,0.7255762687256502
1.0552181719030438,0.6296490437693872
1.3253554598524526,0.8582149165048922
1.3256732907732578,0.9862080931435107
1.3256732907732578,1.0296511811902636
1.3256732907732578,1.0488330542224438
1.5571591651748873,1.0745473849801774
1.5571591651748873,1.127866186383072
1.5571591651748873,1.0745473849801774
1.5848829342969248,1.0745473849801774
1.5848829342969248,1.023394670109129
1.5848829342969248,1.023394670109129
1.5848829342969248,1.1399268837728014
1.6943996052012331,1.1399268837728014
1.766209892788241,1.1399268837728014
1.766209892788241,1.1399268837728014
1.766209892788241,1.1399268837728014
1.766209892788241,1.1399268837728014
2.039942398268512,1.1399268837728014
2.350167135749822,1.2111325661460437
2.350167135749822,1.3746991187981252
2.350167135749822,1.5742238057441504
2.350167135749822,1.9026163013961728
2.419165444242548,1.9026163013961728
2.4191654442425485,2.5165577737481954
2.4191654442425485,2.4741340411176935
2.5347945022256724,2.391575502503807
2.2622700793953787,1.7827866213371744
2.1144305625799587,1.7384783330931082
2.1144305625799587,1.7384783330931082
2.1144305625799587,1.7384783330931082
2.1144305625799587,1.7384783330931082
2.1144305625799587,1.7384783330931082
2.1144305625799587,1.7384783330931082
2.1144305625799587,1.7384783330931082
2.1144305625799587,1.7384783330931082
2.2993471382012998,1.7384783330931082
2.9317346872344117,2.014467966414693
2.9882794264819452,2.6425341310360495
2.9882794264819457,2.777551123404177
2.9317346872344117,3.21389589122145
2.7823029644450332,3.3013513772580345
2.7823029644450332,3.3190058951091572
2.7823029644450332,3.33383972482029
2.7823029644450332,3.7530430280022653
2.7823029644450332,3.7530430280022653
2.468813372376972,3.7530430280022653
2.468813372376972,3.7530430280022653
2.339312228465886,3.9765803037430465
2.318307899623522,3.5684132456091238
2.220763044735422,3.3190058951091572
2.220763044735422,2.511787232687964
2.220763044735422,2.511787232687964
2.047334478497884,2.511787232687964
2.047334478497884,2.3062906673720267
1.9100396581788242,2.173776431594605
1.8063715310373785,1.7864593264831512
1.8063715310373785,1.7864593264831512
1.8063715310373785,1.7864593264831512
1.8063715310373785,1.7864593264831512
1.9100396581788242,2.000291792353525
2.047334478497884,2.000291792353525
2.159852466943042,2.000291792353525
2.159852466943042,2.000291792353525
2.5147463884828296,2.000291792353525
2.6874262933389836,2.000291792353525
2.597489968217923,2.1406673384632984
2.6543335679471074,2.27774047187759
2.8394913915608377,2.3583398024342093
2.7759796729794433,2.6075265258801275
2.7759796729794433,2.6075265258801275
2.7759796729794433,2.6075265258801275
2.7759796729794433,2.6075265258801275
2.7759796729794433,2.6075265258801275
2.7759796729794433,2.6075265258801275
2.491571608649714,2.6075265258801275
2.491571608649714,2.6075265258801275
2.491571608649714,2.6781527574354596
2.6255158211925327,2.997620901968115
2.6255158211925327,2.798276816604574
2.6255158211925327,2.748679588409834
2.5131935505217853,2.132724648593184
2.491571608649714,2.132724648593184
2.491571608649714,1.9946713234163747
2.491571608649714,1.9946713234163747
2.491571608649714,1.9946713234163747
2.4542332623503667,1.9946713234163747
