0.6692392801681726
0.3987645018745885
0.3050971201384074
0.4884965251321551
0.5239365610809001
0.4899249551404178
0.38573392645773114
0.3925532768109722
0.1880756263348799
0.11826697066858716
0.13550491559816102
0.1504980163634256
0.1708117627459854
0.1529651365754048
0.16839188874758873
0.1867444568187794
0.20503421069395256
0.20017982796957298
0.15497923419636672
0.18994429632884455
0.3468634959790147
0.34259506926052397
0.33620496098427494
0.367419117445062
0.2546341960962874
0.36518063972251014
0.3470447155894604
0.35730832523067285
0.2808868719063258
0.2620343047228606
0.17759347745616821
0.2107341213848402
0.3854922535782549
0.30963588417129634
0.32654615750647475
0.24368937211526764
0.3064892943367778
0.31380442868992325
0.3630820099026487
0.23825000441300836
0.24734529521225287
0.2462134516036802
0.3634326549715797
0.3832198191498202
0.3693107971642477
0.27420691670086733
0.3546857444477778
0.29276584135696315
0.2593331845736796
0.20366848777184346
0.18281966671285207
0.20790363485618335
0.19787243518393036
0.16970389013054765
0.1712345844993377
0.18368499202973138
0.1866542003344738
0.20647652760528837
0.22143936891184157
0.255910605199929
0.22352434084978912
0.24933484210522422
0.24540837853045375
0.24764804985479044
0.2544698323326255
0.2747952625200686
0.4849335496032044
0.734504123461629
0.5140123888537517
0.3140853274634745
0.24099198621099138
0.17931329136783952
0.15678799428088236
0.14414592908375454
0.12353828716887906
0.1197029517555772
0.12244936968848949
0.11435823879791003
0.10631916819778069
0.10593665687158905
0.10883861237917815
0.1273711132015078
0.14136385708803875
0.1622582883306431
0.18201467821619027
0.3201297377587609
0.33981243804205513
0.3225475425655907
0.33809807246397183
0.38227999647318756
0.2867794100088356
0.17898896135898415
0.1756196169772459
0.16324225800497386
0.14902855490546285
0.16357909786902564
0.1612201644029386
0.18521258210493788
0.16454958919161072
0.2126842707148777
0.3525733370749182
0.49132122322511557
0.7729582196458333
0.5631436353188494
0.6132596491572146
0.8024969376238142
1.0327145944629408
0.7772606033718181
0.8008319614979589
0.5645755050977111
0.7416429807420908
0.8498115028938773
0.8315426560647086
0.7670228512001033
0.6942611475729696
0.7435803678045129
0.7617886450528453
0.8622556915393423
0.8860686850078004
0.793264679383809
0.8234870998095647
0.6533517730414461
0.5289176392750059
0.5172683714060764
0.657399983114985
0.7069171514873372
0.7328767305633694
0.5843328447942255
0.5006099953379843
0.5864676246510934
0.4449017574394487
0.5477392793733916
0.6543927261941068
0.5110271215203745
0.5135389894628296
0.4728433082835994
0.47042474898130804
0.49391521635972624
0.4271520785761989
0.4551983595285406
0.34539641892318274
0.45438150702614466
0.6594182579151785
0.6452490968756716
0.6354985120489731
0.5842108187371192
0.49293407698665054
0.43278320295057054
0.3680251580901681
0.533097654723097
0.5170521884916421
0.3745433833502839
0.27149701920491454
0.3416925446420136
0.3752300650269004
0.5008776626618985
0.5600002169653986
0.6734736067604445
0.6798029044549808
1.057816479630788
1.213387949335537
1.2876191573384508
1.143497046629889
1.166086925146792
1.1849540932635334
0.989357947202069
0.7475804784421987
0.6413560589699028
0.7150871316282492
0.5334361652083353
0.8898601219310254
0.7285923345838731
0.509059558655127
0.26067191044877774
0.486953394408507
0.46793658088325246
0.5247485264369762
0.6824533704259679
0.45716755793736213
0.510741476181288
0.5966210942330515
0.6048531980064379
0.4944866718608587
0.48234839967094556
0.35528284239026975
0.2590516154627877
0.29079113185659977
0.31478685262461864
0.4411144276998019
0.47703629328580394
0.4567619747021347
0.49585219208519454
0.5470002195032176
0.5284811531730002
0.5437740639251154
0.41329882907672993
0.35751954862144264
0.38026106389413006
0.4256185456923133
0.35753203119962074
0.4390193646542511
0.5114181807862767
0.448902771368613
0.4731957693673197
0.6977087752652992
0.8460477676144207
1.060003681203575
0.9436370619372666
0.8434773355267292
0.7448368244508159
0.8227228756504495
0.7898231408971383
1.3264007811779768
0.9995607963354594
0.9893192978062365
1.470614084511366
1.6726313087504652
1.4848803251265115
1.600786378247781
1.3986156806191061
1.3418319328454356
1.135334890743192
1.1398465448070367
1.0182662660348387
1.0551736311183255
0.9770057211545784
0.9295063225502896
0.8281892768959759
1.1109949350202284
1.1761466680283712
1.2936440160611802
1.1506601961684273
1.0115320647835437
1.2464179632291863
1.413161015429816
1.158835029509119
0.8782558008812882
1.0096117628169925
1.304445577756093
1.2043438751425064
1.4513770803176371
0.9308718447900506
1.2385030631019376
1.5319537439688926
1.0693631909116834
0.9441766701930407
0.9324383084490419
0.932438308449042
1.0664364147640748
1.059031854853959
0.7311064611304917
0.7725120004926858
0.8991437235916878
0.8991437235916878
0.9996516241919023
0.9025434707148783
0.7656296140931612
0.8366778009159107
0.9387521233805489
1.1053875527461352
0.9217530289562517
0.9010746517326199
0.8542841271718657
0.9407057757747875
1.043615123151261
1.0054239552947979
0.8594005859155089
1.2645615308371083
0.8916844202441352
0.866764258498667
0.9946915115559043
1.149136952567668
1.163793610320342
1.185401156301445
1.025978352085153
1.176903615492203
1.1695301702085226
0.9062695081830956
1.0910894511799623
1.4656242699512365
1.1114993928410295
0.9482910198003316
1.0057712300036323
1.1933482802939324
1.1997815291672116
1.178168878988284
1.2273427206503902
1.0789976202375957
1.059024196528749
0.6638954466118324
0.8562325094789904
1.2858535857709577
1.322997056967421
1.2966947843718675
1.4589257833474902
1.0910531052331225
1.2260370110063996
1.2021954452539396
1.1829796003445703
1.1829796003445703
1.3988742123914857
0.9181553991582684
0.667844347854878
0.4258214893766188
0.23596429267628471
0.1624178269000353
0.11166418305113346
0.117998624344756
0.1367324015564325
0.1402860853288882
0.18215241923827435
0.20786129536958034
0.2250572687285958
0.19557305048898585
0.12103218144808096
0.15202735104898069
0.15477286234721915
0.24584168386529506
0.5369388763098641
0.3995846709726627
0.37334632351971614
0.37044674572590985
0.289224397687592
0.28571517493932846
0.22493118695701422
0.23700546375861767
0.2315986138095004
0.20464122275024188
0.22853426120525147
0.257814355056787
0.2067573331753007
0.19339410299451545
0.21053457150777605
0.21560224130952418
0.15803971289171362
0.21402892889861477
0.22048390278165694
0.19653292640334105
0.26988284405963153
0.25390092762076705
0.27401222071249287
0.3379330814386103
0.2590516154627877
0.2632097534037503
0.35352629946684594
0.26200495851995353
0.22960091459521806
0.2236050938873424
0.1918410353182585
0.18404424080661888
0.19090289007607117
0.1840326174192707
0.1557106143854832
0.17518793393546117
0.19104005931882945
0.17825457928786542
0.15506013943206265
0.1364616861558042
0.11189884771098299
0.18594165188122772
0.3559664062841491
0.38700957208869136
0.5563994356904163
0.5985631369173302
0.5664152172633111
0.387251431180037
0.20244250057942964
0.17809264328602867
0.13183450519493234
0.09268446332188757
0.092536925693488
0.09763804058929718
0.09989721452106005
0.0987588142909554
0.1005404760759722
0.09451054704946339
0.09989902535236989
0.10924383751470351
0.12311311506940019
0.14355199831756724
0.15724739390832185
0.18801247308846608
0.21975765862680005
0.22469806633555434
0.24941169776189087
0.2350279969874747
0.22375851245607453
0.22737689737136227
0.2124910540061851
0.27325968396527167
0.21810826959502555
0.2196057740687761
0.22693315905760952
0.2195477417570825
0.23855111311964347
0.44527193010546057
0.49027977611897755
0.5853060197125332
0.808001228894692
0.6696457328095838
0.8763535905173694
0.863540187344294
0.8918785063429355
0.6952958260600626
0.4809955673819384
0.38969502666772937
1.0545881336611298
1.1312108793705582
0.9901134585919522
0.5265043859754028
0.6818626472873098
0.6226668270484256
0.7663359401617239
0.6530823165310241
0.6309805939984204
0.6611905642009199
0.7659697152915311
0.9009576913520112
0.8315426560647086
0.936860139672736
0.9972621335128385
0.7210734590111478
0.5967295827202905
0.5319355999883388
0.67998171026731
0.5319132450865452
0.4896522490277872
0.4981021004783535
0.3932826651826228
0.42602161312847875
0.33421257352299677
0.36263668303760127
0.4965080120584512
0.451169431323823
0.44630483493201895
0.5315352199584058
0.6647045268109303
0.6663241316318305
0.6191425584437998
0.5334353996395628
0.5453864144944881
0.4370575761315704
0.3529179464200686
0.3378024977468519
0.5369898602329435
0.4609620076245994
0.4341835987061114
0.43278320295057054
0.37717173070482746
0.533097654723097
0.5170521884916421
0.3745433833502839
0.27149701920491454
0.3416925446420136
0.3752300650269004
0.5008776626618985
0.5600002169653986
0.8200079238206625
1.0303754878441018
1.4225287465189187
1.019919734599366
0.33719225215810006
0.34107851671043576
0.4933728580442592
0.5611107164753419
0.3127548493206867
0.40117499639944576
0.26067191044877774
0.4385192200890407
0.48814914189710334
0.48046330285734085
0.34988092611557553
0.31629007931413905
0.3084509022732604
0.2546341960962874
0.24637848999376313
0.24443635932973193
0.31164743381542453
0.3062615725210084
0.23222485127320544
0.3647108876963948
0.31478685262461864
0.3700964263114753
0.4349365106781398
0.482220267069507
0.5615103839419623
0.4932596565144953
0.7171527128264398
0.7189856000279917
0.6185866923912889
0.5328149082537581
0.5522423273669327
0.6204753812416136
0.6774225050521407
0.9002058530032181
0.9445134797864917
0.5979182368125892
0.6111431157391782
0.8486151282404324
0.8909591483128021
0.7272660065961087
0.8234703461259781
0.8154834993781402
0.6167789700621453
0.9476794675470626
1.0961962828064125
0.973913361667377
0.9029015108429143
0.8803080321839026
0.6187030854736775
0.9077652481959502
0.9404008408634039
1.0855919381409584
1.1422502912189587
1.0764659344625387
1.139223927482029
1.235616328045529
1.198850621045017
1.147718584944699
0.96902691960331
0.9618075102801743
0.8248631776194251
1.3267865377977055
1.2828829221462663
1.2290366012295566
1.1688028865047146
0.9486348471448447
0.4681435604818877
0.9501872390123003
1.2695108755150943
1.0296644802681587
0.9344195745340185
0.5737284670855924
1.013081457233191
0.9738650377164161
0.9971617648805524
0.8954954288483974
0.9540437340221033
1.03702205176711
0.9709832153866308
1.1232454134443426
1.3602557629135044
1.318517826835757
1.3197776414195619
1.2297354737000037
1.1986605807931374
0.9779975650163971
1.0457519162607427
0.7707002137637619
0.7869852787423285
0.9640291292116767
1.0144343551241028
1.1903356218011982
1.3288875374806717
1.329952058676721
1.0751891270329763
0.8612772311796669
1.0239813315880693
0.845245205239758
1.1761466680283703
1.0211232828117485
1.4824986333222028
1.3292105885871275
1.1184656748630672
1.4277670862450624
1.2491080041066402
1.1529633613210426
1.0579899647790747
1.0579899647790747
1.0665915324714033
0.7433187948772875
0.9093225351934064
0.9687295355859378
0.9414633607884897
1.0210809261184333
0.7963708311289044
0.8958568457704351
1.1694937281174995
1.2285377784213114
1.018266266034841
0.6757457582921298
0.8454548719992707
1.1871234249263602
1.3026562607556067
1.3247307951647602
0.6942611475729694
1.1688028865047133
0.9595930899102109
1.1103720403611994
1.174632788645105
0.9769923796948068
1.0387465571141428
0.9687295355859367
0.9899755313787238
1.2642198190467346
1.028116556256944
1.0209090623666681
0.875079896590758
0.7962332443368978
0.5867399673575279
0.48323796264538
0.528107119995505
0.37145323783785006
0.1880756263348799
0.1624178269000353
0.11826697066858716
0.13184326939466784
0.13233527770385978
0.12367292312710011
0.1394899387044796
0.16763358406766046
0.17803155457088843
0.17738502393579378
0.1369639890075478
0.12857374960331597
0.15052604417143103
0.21746609072290343
0.31135228123208253
0.15843271784402826
0.20384108785527907
0.24174078848578023
0.21819949141115275
0.17589744724038767
0.16477075126200008
0.1700136748426207
0.1896743984245314
0.22637088015226708
0.156334215866869
0.1542536929482142
0.17844443107683983
0.19104005931882945
0.18195651777856853
0.15542902750982723
0.15580677354249442
0.15714465644277836
0.20670060808625315
0.20722000698042065
0.2544085794893927
0.24047234655710123
0.2634729450468761
0.32869177642491465
0.2126262638531734
0.197711290951863
0.2016916438176794
0.16963343434377962
0.14841914594722
0.1480970573184037
0.14103383209759854
0.14326295730643396
0.22174385440210584
0.14812094998801936
0.21304673574182936
0.20748097505202107
0.17007635774109614
0.16024482830164155
0.2107341213848402
0.25928449427861955
0.32849804395835525
0.36168346366504645
0.49871208205855927
0.35723755518759065
0.23640632651486773
0.13926910735110976
0.13841795524291658
0.09586946836698151
0.09449153017160483
0.09895742714895707
0.09453798514900139
0.09451054704946339
0.0910479105490338
0.11283114064848597
0.13099845383536657
0.154354884608911
0.17314085908624
0.19565288379569287
0.24182673036908206
0.29873422796652227
0.26339135885972914
0.2775619888150788
0.2386195348107629
0.2118231628657971
0.1552634343793979
0.19907900485072252
0.2693372721792777
0.13609837836068056
0.10167229009027628
0.20680168464628393
0.26701207961687884
0.4122587305049229
0.6225268688817437
0.5575319141444095
0.6264903772269584
0.7065319873970498
0.732595037124426
0.7157648241883019
0.7386681901423898
0.8195318164553611
0.7324632451923582
0.8820194372263059
0.9449602421775769
0.993652309439431
0.6675036112770637
0.7403036517635891
0.5330197853491114
0.4372222407425085
0.7324841095538407
0.8042871106941789
0.793264679383809
0.7512042925789102
0.4351198662997315
0.4600237902071273
0.516629492171897
0.603509285167999
0.3680251580901681
0.5937377155835862
0.6114447984026622
0.4427359741486818
0.4925135122511389
0.47030023083887085
0.5438427195490542
0.5409666442244759
0.5120858303792049
0.4267098402557779
0.42689656224898515
0.4161565793141598
0.5765758591063477
0.4753651629493573
0.4872759721670015
0.42166065329158814
0.4675316012061525
0.4941743791955105
0.5732538908661204
0.427708334734566
0.31359384538795504
0.3602711357343986
0.4072022782241879
0.37554649674559887
0.8311463510818015
0.705075302995019
0.5614505714570152
0.6684379851898791
0.6689353963822731
0.8813749931540003
0.8106052230437434
0.9845958159279768
1.0326496438921522
0.9858979338070311
0.9344412938037503
0.8522256372760947
0.7214188575948379
0.6825061967504589
0.8244722048989089
0.9196906247704993
0.7615119723781245
0.6913158775077998
0.48550245076373505
0.4934647681066103
0.5632474028571327
0.4589961230252928
0.4611149555762817
0.377721808067446
0.3375744101565555
0.33598806066243914
0.3549861024999429
0.42803583369280185
0.38161358991127914
0.4249135410426086
0.5282186457370858
0.3236178423487901
0.32058350239224276
0.37876622325701964
0.3760106740231841
0.35600870632746345
0.33397936550374974
0.31527665768267754
0.42009097030667153
0.34135669641282623
0.32978058359816
0.3104506393006696
0.3288004371668438
0.5333433536852745
0.44284826086025586
0.583562284899286
0.5915420903958831
0.6138300531131086
0.5329725891019781
0.5730528597587741
0.7058159483311964
0.6086756825807194
0.5276474397773011
0.5757139935984177
0.5873143022986693
0.659075877027529
0.6690255675416493
0.7207499701564477
0.7266352567380392
0.6710964057118852
0.9694177681955435
1.075468933983781
1.1120431871658794
0.7846331153763556
1.0674969242248387
0.7291478816594607
0.6748829817425755
0.8955259671626707
0.8868867563028203
1.0353287899158015
1.0758688677348316
0.9687295355859367
0.9899755313787238
1.0019181894766467
0.8931292773525595
1.270279613878033
1.4454516858823734
1.0210809261184333
0.7963708311289044
0.7910866502221442
0.8112187031796504
0.7878732099784982
0.7878732099784981
0.7878732099784982
0.4470046924273124
0.6901150602044158
0.8856148855400958
0.90272141911616
0.8065247618220408
0.6486967455026545
0.5304308844131281
0.5511132984357854
0.6674437118994466
0.7531616183119297
0.7531616183119297
0.6486345390086071
0.597538155702054
0.6943204852869465
0.7608302502867264
0.9112586859184632
0.9453358703644239
0.7051139829899452
0.7600980433443445
0.864505496419609
0.9433494750327418
1.0417409366636998
1.0417409366636998
0.8643187741937515
0.6740744125690901
0.8335687134389359
1.0965719085678938
1.0292446779193332
0.9744058483530329
0.6202026253160142
0.6750116004510747
0.8880023217254935
0.7097527165258498
0.7619854716569379
0.8556236035955644
1.0089755066396975
1.090763481851096
1.1458662420643042
0.9096359225800337
1.4065259467477195e-15
2.9822716984172073e-15
1.0229708192341311
0.8421045781399219
0.7475090494269783
0.7475090494269782
1.008369178934514
0.8543114573830639
0.942573564852688
1.0566494120244645
1.02364952050313
0.8847883226264229
0.9115449095255339
1.018266266034841
0.8266739198009736
0.6740744125690901
0.8335687134389359
1.0965719085678938
1.4815319297855718
1.0982972693964295
1.5279663579991989
1.4995053880601403
1.303124292882801
1.1158291004905165
0.9382302199299899
1.314468725967233
0.9542051433515922
1.255863779664599
0.850006248325882
0.37817740374060826
0.16215497443040058
0.1203809380223973
0.1270622087671316
0.15408193202903558
0.1595429344140987
0.19307045262619071
0.20583664120154438
0.21975045326456857
0.23331855029659512
0.2244124625222334
0.15376971339063325
0.1823959703128605
0.30411104136346817
0.4060428767741212
0.33633030636384703
0.3182003465686367
0.284783803506084
0.2110125259561473
0.2004665413865846
0.09219721164626632
0.13488760503395425
0.13629697877823252
0.17208583838375693
0.20587595423042493
0.22847045067288357
0.22233065875556451
0.2109162632265924
0.20066922325438238
0.17248153925500445
0.15028418035692723
0.152118441272023
0.19778159279693847
0.19911315947887545
0.19411827000198856
0.257014759598463
0.25183986913451234
0.26310011620797075
0.24614208627826475
0.20923542776033635
0.12798380001017337
0.10587664877717114
0.127263257444825
0.14207742512618815
0.13758647384072728
0.14187970522755
0.1597150050241862
0.14281021547521475
0.14409275888054238
0.14447918104076488
0.09192649135098477
0.16005650261486784
0.23993767497428053
0.5444118989289345
0.5007048057108853
0.3140853274634745
0.24099198621099138
0.17931329136783952
0.11788237499103768
0.11895707320550965
0.11117653431673076
0.08698498799358445
0.1339049142001028
0.07020694600415524
0.13383646141837607
0.09206718569729529
0.10914737748502423
0.09297957310119583
0.11375107798915576
0.11928512639283162
0.14312090583388676
0.22367083133047957
0.23189468001014857
0.16240325104874756
0.2325237750675413
0.2153024816721029
0.2129761516770024
0.2051368180316342
0.21576785443062443
0.16199362720304147
0.16183650749008896
0.269034779662298
0.2610147499750617
0.26124690512710524
0.35283639224836827
0.5255557219353856
0.49755481210098307
1.0085291456583216
0.9124394225719162
1.106148565686144
0.9209367762680196
0.8731264761175034
0.9343110155405812
1.1092856763978338
0.9758829824093935
0.7465740753687303
0.5903207013855442
0.6585341082701933
0.7919124786846633
1.0315141849603662
0.7994660411773479
0.894982822704524
0.7492558605808953
0.7491408758598412
0.8526148573830717
0.8989909720624216
0.8931653872684864
0.7271551362095076
0.5183637912805396
0.664686916586648
0.4830354639625612
0.4946525628379351
0.4911028358432049
0.4109332611492817
0.40822776629406266
0.4370575761315704
0.49397282493201217
0.5175713374171443
0.43492906582276863
0.3515489988220252
0.2908252723176263
0.38200953733582016
0.4416108308118921
0.5175713374171443
0.43492906582276863
0.3515489988220252
0.2908252723176263
0.4405375472643658
0.6697813246245902
0.7386681901423898
0.5435168818064123
0.5135819657850826
0.6366254270225803
0.7706764036122326
1.0003848978099064
1.030362273952404
0.9353196123215095
0.5645755050977111
0.8050346148769694
1.1301654305613724
1.490147960878642
1.2826565505951755
1.02364952050313
0.9282140458251851
1.0535348202711068
1.2893187638661912
1.2620777581682951
1.2360142575934334
1.2657900673073512
1.2290366012295568
1.4454516858823732
1.1909243758724184
0.5949904245115207
0.5921945745659074
0.5416609875743466
0.47032410909697625
0.37876622325701964
0.45363733675563306
0.2863860915519932
0.3331553232581988
0.33852817560487064
0.3233631317253332
0.37783042509628195
0.35915917914259865
0.2883036969234349
0.3421961165419242
0.3739994360996333
0.4621556848913629
0.5569934337089684
0.4051188531008136
0.4185058443464626
0.429451617826277
0.505008096207659
0.5285910809963075
0.4980751056962909
0.5293434015245174
0.6916871295843078
0.5151688714543532
0.5177434287794203
0.6876136400255495
0.6949997611849668
0.6504358330307202
0.6042489021862345
0.5769711708834699
0.772908378267359
0.7671883619265613
0.7907827038158051
0.513648766459343
0.40220439252040896
0.47086880577420415
0.6849126356689695
0.6690255675416493
0.7690050618005777
0.8510526049326246
0.7638477212512189
0.8407963459421216
0.7476887284044161
0.6023494777563104
0.4888268621057249
0.9009045515969885
1.2445093645554461
1.0090470917805896
1.1797136350279915
1.1311274924308752
1.0417409366636998
1.0417409366636998
1.0090746108379895
0.587220219514704
1.1683345288624842
1.1496504523240498
0.9133468471395401
1.2046442507020074
0.6841687805371558
0.5407908872107946
0.8818454815452472
0.9112586859184632
0.29212052617655704
0.8625414538355903
0.8192089370091208
1.0592830837697824
0.8185337540602802
0.837839109208739
1.0412258819949265
1.1132974088643222
1.1870776762616295
1.142243771918108
0.8318192525610544
0.8814624908154706
0.7513663331288909
0.7526430990070799
0.7460012458837052
0.6841687805371558
1.057227956658771
1.1347028604446268
1.3583991043987242
1.262836246703528
1.056792308521165
1.2473728650251457
1.476197065343034
1.412812824465068
1.273937874973053
0.9669163467431945
0.7178721913788463
0.8815487313766346
0.884684356386814
1.0831496096328477
1.0246140288488548
1.133028963677663
0.5433487534750939
0.8999988678858439
0.9022964837485519
0.7248587294046298
0.8390637046888361
1.0387465571141428
0.9622240716289657
0.8756041981642281
0.8771954681152243
0.8438999445764022
1.1547646477048776
0.7516933982505547
0.6888135360002462
0.665719102162711
0.7883890477560358
1.0127393670836664
1.0421744073946677
0.9858732696235991
0.6990748682950232
0.6662641509066265
0.7721309041189858
1.137493085921377
1.0206207261596565
0.9277976937859532
0.9644016280660597
1.2212367022106205
1.0587605735007926
1.2206945054292038
0.9693747085046817
1.0314388656647009
1.1952286093343927
1.017844329256346
1.01112819482711
1.1083200827244881
1.1196817047793663
1.1203540608758356
1.179864456816814
1.4092571250875177
0.7310938335597291
0.3349155189354618
0.15250396694260995
0.11395610023994665
0.21138407981379329
0.19277606468564673
0.21365472033876856
0.2579262189923768
0.29176864138271846
0.3136504186596653
0.3257805404399597
0.15594402587335904
0.16066015224769437
0.14853748500948732
0.4462553873223071
0.3873774335732538
0.23222485127320544
0.20151762698906914
0.21737637970608023
0.20481540985406418
0.20492374219178658
0.19055913970441649
0.1062714978238774
0.19125839166968164
0.2149585082569062
0.23112055326398445
0.22209292770994718
0.25733138318760884
0.21502789611118336
0.25180638826037977
0.2717652005252468
0.24797357768210493
0.3004001579375315
0.2548568663787728
0.3624445125103747
0.295427808767188
0.23774560983326068
0.17081436034965292
0.18079356517021122
0.16078857163107702
0.14447918104076488
0.14461503044663285
0.1445747987717053
0.15388755515837976
0.14488200490216455
0.13165775424731443
0.1278676532475236
0.15190349962607774
0.16005650261486784
0.22500579757699632
0.3099995431273366
0.41198474720890516
0.4323895122645743
0.3249276219192805
0.23753237220405085
0.15538634980737487
0.11861648528053728
0.0759751132608987
0.08683991796560485
0.09449153017160483
0.09895742714895707
0.09410934858438594
0.0910479105490338
0.10493443601666838
0.11283114064848597
0.13099845383536657
0.1524913116858653
0.16946722882424733
0.20282305497975708
0.21232292559318788
0.2213914024106196
0.21891053674704694
0.22570285735422585
0.18610158064071997
0.1895534675737929
0.17790470753582177
0.14178222967182902
0.1419854739221248
0.18400494947525822
0.16093224284101956
0.16454958919161072
0.2126842707148777
0.3525733370749182
0.7040029277573265
0.7501288270501718
0.5927132346263596
0.8048133799884886
1.024690864287054
0.8561290839773464
1.1444235399390827
1.0815956037826306
1.124765230949295
0.8001218325901259
0.7661899088087517
0.5931935024112
0.5438427195490542
0.5394605897142349
0.5958362181056834
0.58566487949197
0.886628947604168
1.0018746238131773
0.8695150752799622
0.7838286815001326
0.7799186438640107
0.7178849867852395
0.47572508604325675
0.4510882156008381
0.6244361901978668
0.640948403216768
0.5468271627946081
0.48587301331791954
0.2989518383436781
0.5338813306860388
0.5559127456768487
0.5573365386713481
0.6267966914032822
0.5050528791317239
0.6106109793732957
0.6924227713326563
0.5068610513220663
0.37536173957774144
0.39561447879286044
0.3288353335718628
0.34288208482995686
0.40320729394582294
0.41055097566171117
0.5235916335716839
0.490841471655757
0.4917828530152384
0.49788169142630256
0.5217735706011074
0.5675891851012457
0.5113705820498338
0.4917967009915671
0.6352168734501119
0.7539840218658572
0.539963107639784
0.8533236081210358
0.788832698862594
0.7534794229878321
1.4704292441876181
1.312435917779423
0.921111479425679
0.7683962008551718
1.292030324776639
1.0169722352390076
0.9522824816444158
0.7475804784421987
0.617264575241732
0.43982476983393154
0.4969973015387836
0.5510978089197432
0.628967061658064
0.622848343541206
0.5131017757926027
0.5819321567445667
0.536562758954396
0.4618270321517742
0.4168748626996315
0.3566840264520805
0.38798265544497806
0.4178059429508127
0.38177895236215625
0.40888924232530865
0.3700964263114753
0.4349365106781398
0.37123490685621674
0.4099992633012465
0.4026529940576378
0.46793658088325246
0.4466080971198887
0.44145672059607516
0.38776011765222446
0.3228670183001241
0.4051129536336322
0.4996355077917669
0.35065579516837697
0.43109923532886074
0.48979872806126123
0.8219011612353013
0.7787302580030505
0.83790374195988
0.9331011791529803
0.8069037373035904
0.6710964057118852
0.9729917067894359
1.4201273062726172
1.2734573731443053
1.4900606111938743
1.2972472295343274
0.9212136299880669
0.7699025358121258
0.8718872430041014
0.7245013613085165
0.7318302195732964
0.27420691670086733
0.4958357082929616
0.49344296441284397
0.5069717610570595
0.4196415488436545
0.8881171545078668
1.0765950288998039
0.9910229962938314
0.9743424946209529
1.7671588954256443
1.602573203442881
0.8030637852172935
1.018506788901649
0.859222617414678
0.785895209415936
0.8829110573353957
0.9876961177532051
0.95502635204114
0.9249009296611418
0.5433487534750939
0.8963866631776618
0.7590566122719831
0.8715725545566552
0.7785897156631177
0.6408398586450157
0.6217103581309492
0.552534046768306
0.6948094591029204
0.7173122067859782
0.734514150829635
0.4743137088274668
0.5193382239541868
0.5289157134405946
0.5627476720365128
0.7118890588811133
0.7694946462068981
0.6727192750542692
0.7253790073856161
0.7036528912783833
0.8863412854932406
0.8641465087170849
0.90791019848664
0.850951138717511
0.835005430369284
0.8864778633158896
1.0620590032098254
0.9862161938797062
1.0927375084926076
1.0867537466156634
0.7979661845474001
0.8111071056538125
1.0570337582302551
1.0878565864408427
1.0816440605328472
0.7482936006467324
0.744890620737781
0.587220219514704
0.844251255245414
1.2984487398350428
0.6800023838829952
0.9279142962721207
1.3552802451536046
1.4379438744220752
0.9882801635494228
1.1478326172483064
1.1270394425762427
1.2537836120762056
1.1980995789623747
1.0232062483476627
1.0978218643982618
1.1443934690767672
1.0619237651380187
0.9627064410349244
0.9785890423153953
1.2534538264257935
1.31317295523445
1.3819980615931622
1.0682557526062835
1.1126304360690147
1.2678503484029142
1.1184003097150577
1.0353716404228142
0.7216329125361349
0.3700751432594758
0.3241393701035157
0.5258963789161384
0.20355918020660846
0.16478711146216923
0.13903403306467121
0.15189910766062104
0.16474024542452526
0.18962196061756856
0.21854459604905363
0.20196294486528485
0.16466016856850466
0.19925572334872174
0.25054311201883345
0.28054399158828147
0.5508827739957306
0.4774733622794242
0.3900009669670314
0.2893758227604233
0.24500351742055224
0.20366848777184346
0.16720311097718676
0.06652740042519753
0.21493948611886485
0.2852024519814372
0.23211027503070553
0.2904791698669299
0.28405862684493394
0.36297293255070595
0.36026158598567654
0.17418666651671294
0.1787128504678775
0.21229540829020915
0.1476334562880052
0.088547347483666
0.25219442658985214
0.409371656095107
0.6055906983866319
0.5083315740394838
0.9255634754437589
1.1559094313399096
1.1062948243903656
1.2303821904539471
0.8993695638994672
0.5259779136850059
0.7880095297639352
0.9967056693185744
0.9126315821002255
0.7337823069463059
1.0654368279367987
0.7648591620007921
0.7922715965041167
0.8935518260472464
0.8562359237673459
0.8348297146261117
0.6990748682950232
0.6371064899268054
0.7184680886171325
0.796136188351871
0.8094788981611044
1.0944269969697724
0.6942611475729694
0.6001729603818665
0.9149833314239461
1.0275354635104033
0.9687201323153397
0.9492226821772304
0.8540655939412902
0.7313326058910707
0.7365315754162925
0.8164965809277263
1.03990868617642
0.7189856000279917
0.6789845812362514
0.5856068532862866
0.5998382688247685
0.6948094591029204
1.006864942199437
1.0332285154883536
1.061391490040677
1.0056111143114048
0.8281892768959759
0.977879560381642
1.1261810548779987
1.167878004449715
0.8643445329178029
0.7989022839906998
0.8976804331511363
0.8935518260472464
0.8935518260472464
0.8348297146261117
0.9249061064148442
0.8913715646127871
0.9842236002261724
1.1514398277919742
1.197769764908968
1.2345828020657403
1.143776447470874
0.9741594934387883
1.3246677355330743
1.2018535785614626
0.8802503090457489
0.6271096490888853
0.6904479782615704
0.7222379410144347
0.6385807231680597
0.6244862646268398
0.4473277334092194
0.5208134293543779
0.5905165771368731
0.5867399673575279
0.7735448371008593
0.6917308153586677
0.6076012043304563
0.5859832976073519
0.6788428295755256
0.6404234700651925
0.6585433971791277
0.6222012001847457
0.6739671708679067
0.4060407520467487
0.43217999965366344
0.4660838769059899
0.45880295360682927
0.4120179817094247
0.40455533710234687
0.44630483493201895
0.5525314100895096
0.548934590817508
0.5409666442244759
0.6709081802539311
0.467273748308959
0.6338474599186816
0.6245312000871853
0.6230863869929547
0.5584885995545759
0.7010267510592222
0.6455299148574288
1.0040152090042505
1.0809908061899718
1.292815881620086
1.5176979050545385
1.47953140198846
1.6181100721920845
1.318517826835757
1.3197776414195619
1.3739700410512312
0.9833168175322726
0.8394581101214158
0.7779161704030728
0.8308718590725344
0.9531489332240278
0.6925428045556169
0.4538026195508151
0.6627735792885822
0.7059540890766385
0.6875951758786287
0.843439537772533
0.7940439631846994
0.803285199706463
1.0135385634860572
0.7708354902139285
0.5551811846453683
0.8042938469334394
0.6337102405939931
0.811547514012186
0.9954055382661852
0.9687201323153397
0.9492226821772304
0.8540655939412902
0.8999988678858439
0.8682614769715231
1.5585526177312958
1.235270202663449
1.5482839933228418
1.3566062399423078
1.0526803729252214
1.2830069485738556
1.2342240280882772
0.8736984774805846
1.2895554492649124
1.5211996665294116
1.4264316278902651
1.3013394054489176
1.3456080263358003
1.0295269224422208
1.3669243743925619
1.3142882943059044
1.264837723063203
1.1744112967237506
1.1689844926028987
0.988624215028728
1.1136648638544948
1.0462694478985912
1.2383818151943677
1.0526803729252214
1.528969700301415
1.2084906510014573
1.0829639916264302
1.1680284442396343
0.7358602010000529
1.0518558873631063
1.1944994139809184
1.1181477129508168
1.1153515107764973
1.0765005099706044
0.801584433287462
0.5337654427790981
0.5138078257334361
0.9337409155360641
1.0504105832133177
0.7968190728895954
0.7136564326788254
0.9466642925107739
0.9266910758630135
0.7332423720992788
0.9424048730011778
1.1922997268634998
0.8457361314282664
0.7244549763187171
0.6629317662939952
0.7226892346472173
0.7443487347654256
0.984416518685412
0.7969211184069066
1.0210809261184342
0.9488091196460595
1.1014859361088163
1.1450596049993707
1.063425097976096
0.8872682023762901
0.9124394225719162
0.7696497888539048
0.7724794499935166
0.5958727877772545
0.8245956759126739
1.0010427226947773
0.9733206077415222
0.8906445814261306
0.7480335951281006
0.9797133310087967
1.0192925872286844
0.7919064379621465
0.8963866631776618
0.7590566122719831
0.8562915336443742
0.7785897156631177
0.5276474397773011
0.597643387803864
0.7780128749244783
0.8406718731926742
1.2293039538986468
1.513017150709613
1.4386265253821282
1.2780904832572946
1.6913858253908376
1.9536204035461835
1.7093123539601152
1.672491829119631
1.398344408014511
1.1248850086823385
1.0654368279367992
1.1462171811126194
1.2686845720753794
0.8278070618688625
0.9176606764725226
0.8873153032316805
1.0052843633337605
1.066891514395542
0.798981743395077
0.7989817433950771
1.000599222866888
0.7729424050211617
0.8680799241931657
0.9115774222901831
1.0251188903594346
0.876309954282793
1.0209939970338733
1.1399575082087459
1.4548869081943447
1.480740808108272
1.5560832313513453
1.3039133330610269
0.9384363599181963
0.9273782937774588
0.6085486578163615
0.1973845301269198
0.07007240054852211
0.07123101761917114
0.10373390425074198
0.1478047031656439
0.16953702739499663
0.17050973700481453
0.19857281496711718
0.17297230912211
0.1704947882837401
0.11969539627292043
0.12324541203087051
0.19778679857745982
0.44031842244949126
0.3877421022021082
0.4294097520499963
0.3227636795563431
0.2893349143652915
0.31634559205724844
0.27447649219409737
0.2968526427476411
0.31368246736994065
0.27480853425196244
0.32963489724897643
0.4609843402589373
0.3731835367377959
0.3384468531118152
0.2827403031930434
0.18797528507737
0.24551125176788494
0.11742796290975095
0.2778241918081659
0.27556246348359903
0.27420447364194833
0.2863860915519932
0.3331553232581988
0.3236178423487901
0.32058350239224276
0.43578247613695137
0.40245653581322766
0.2549723954623514
0.2922210887283678
0.47370810931515805
0.5980413080959729
0.6027129156852608
0.6635413645733111
0.5205578959256122
0.9565508864863245
0.6926244589295842
0.630907771005458
0.9395245681014509
0.9797204050759701
0.995804662806234
0.5469082404055395
0.35803293767882816
0.2761610118335307
0.25877075394607424
0.23301317033915547
0.38311504949103187
0.5883863667168766
0.7246480603656624
0.5190859567530685
0.23640632651486773
0.138407782277791
0.12191346145164876
0.12603280405190087
0.10730188574117687
0.13660340402829033
0.1281745279589792
0.11045303973324119
0.1515259728756895
0.1940359760203728
0.3059942052215409
0.44224766198887744
0.48672010870979576
0.4712817338704484
0.7338400132566384
0.9790686237835964
1.1237169156328255
0.9223287278812907
0.9059982816908394
1.079426592271679
1.27906175242433
1.3135068986468297
1.5146386595428756
1.2310258430347978
0.9167310277323265
1.3764301000593253
1.0856837470404486
1.2909223567131358
1.37808906472108
0.8619002277112255
0.9337467334980543
1.233268820240287
1.0208839366234066
0.9738650377164135
1.1053875527461339
0.9474547817925005
0.9757792865091
0.8516781106828961
0.8024295777896387
0.8818588074846783
0.9355654333995853
1.0062356332152311
1.0639832999772727
1.0778789503142057
0.9200715409284264
0.8158507005587888
0.8368052358193039
0.9673716206000169
0.9684866771141409
0.6891052690093689
1.3329282645359712
1.2637069354450883
1.1918548505483912
0.9326101079939674
0.72293816971104
1.2263652132699927
1.4260521272061317
1.1009474438076812
1.1207592131376187
0.9944729594830737
1.045340962796101
1.3397761688729697
1.2901427263438567
1.1850719780985628
0.907347422332766
0.939542673547221
0.7940439631846988
0.9325048082403122
0.8705327692032983
0.6385807231680597
0.6244862646268398
0.5321843571970283
0.37038291381289773
0.8792343012421633
0.9298598897960632
0.6248531317803263
0.777654881197194
0.7600457496014982
0.6271096490888853
0.692238710204102
0.7317586983470885
0.8639228521115138
0.7738233072106635
0.5631436353188494
0.6132596491572146
1.0858369102010204
0.7036670610418956
0.7529332009754296
0.739291229563485
0.7525713426910579
0.8255407797111893
1.0930813566318864
1.2296146754360107
1.3732433384085987
1.5043374878267972
1.442368396901147
1.6396635655185172
1.6580735374404336
1.2192155209340494
0.8252383115225638
0.8880023217254935
1.152704817012224
1.1508341619204563
0.8935861516491186
0.741653072834536
0.7891863228613525
0.9100199484911189
0.9595930899102135
0.5941809669003123
0.618344044243765
0.4864318725366141
0.9065963785715914
1.0578659983525591
1.0151688602289062
0.8129916637553741
0.7071523089842275
0.4409762031626703
0.5449180828947022
0.7559708340960402
0.5706057582576005
0.5994265417926934
0.5323286388103144
0.666436588860132
0.5544098476727218
0.6323583419582666
0.651146232749169
0.6560358193731566
0.649007008357747
0.5905380001826747
0.51583311135626
0.8680656328408274
0.9934562434591854
0.8204687059297051
0.8377904911858374
0.618719705504772
0.6553918942659279
0.7884333292363588
0.9399543353968302
0.7148514903297604
0.985308208610813
0.9874484380418544
1.0705754551443782
1.211434166453744
1.0396209677166202
1.1740632973361096
0.8922773378360923
0.9597659974141075
1.1004888420649668
1.2678127825265784
1.2127496344261341
1.0211232828117485
1.0707174303999658
1.0593488967469975
1.0418259558591867
1.3445684107384126
1.194333423712546
1.1666362409175963
1.115481843808999
0.7969211184069066
1.0612895245769058
1.2344355883788147
1.1852220346491302
0.906732616679121
1.3383122140825399
0.9193571461982255
1.1452202728523533
1.060003681203576
0.9404008408634039
0.9022835575735715
1.1043015862310208
1.3378087231072087
1.3701211304101184
1.698415551216894
1.2850992934698369
1.4224906501280707
1.5718745678774784
1.4060219587834009
1.4805099132134019
0.9815301225947206
0.8702421092926681
0.6950056679177274
0.9295732281597134
0.7799664749815846
0.9922655470326052
1.0961944249478177
1.2812382347687299
1.3495597386775946
1.3495597386775944
0.9457740462793316
1.1522647599208609
1.4726416775224465
1.5049946023276288
1.6367253663479955
1.2022279093261121
1.4670821246244814
1.363584904652752
1.4529082100775699
1.152101851971294
1.1488675660464094
0.8497686807088538
1.1470786693528083
1.0537200813029808
0.6128632730634102
0.7548969057556656
0.5695584965412025
0.5971844073399442
0.7753246322703697
0.7841907979945003
0.844251255245414
1.092842325404396
1.0937270553588165
1.1401971205209784
1.0164258722673343
1.1463897441957451
1.1726858542726812
1.1403579898360092
1.2898141866862733
0.6127259215138573
0.49908449742315464
0.8250748382821851
0.8495271720647685
1.4567069305356428
1.5234172122006013
1.1819810747144015
1.0190245255999963
1.1306162514430314
1.2735763560894744
1.120354060875836
0.8497686807088538
1.240636805261537
1.084301146017875
1.1850719780985628
1.1618002122954931
0.9582865893293311
0.6950056679177274
0.8503928093409212
1.2344957483831973
1.4114746318587905
1.1242284330590364
1.1339596810361878
1.1893844520595431
1.4314151298299778
2.1804860582928067
1.4992137019426701
1.0576517379392776
0.884113029839992
0.7222752145805441
0.6340400058762004
0.5141846029607436
0.5560191380629642
0.3098863854984405
0.07007240054852211
0.07123101761917114
0.0824106482585231
0.0873214918429129
0.09108317107560794
0.09855674414040794
0.14855234160262776
0.1559300079983099
0.1704947882837401
0.11969539627292043
0.12324541203087051
0.13300814219338639
0.34860257277017404
0.24110226097582185
0.2977122143906781
0.2615855719885862
0.2470628836092532
0.24637848999376313
0.23481527418089146
0.2130936636765541
0.156334215866869
0.15953053838061027
0.22256735119165932
0.2504946829472917
0.2642370646191961
0.21462616853834166
0.24734529521225287
0.2574062774119994
0.26476892621416837
0.24714087339922217
0.3393811089245853
0.33700406916482045
0.3614855685218151
0.31738685724409754
0.29276584135696315
0.2687064296780167
0.26695502874006344
0.23979961557442836
0.205905259411201
0.16030180242763703
0.1700136748426207
0.18216924755658698
0.20174454922037316
0.15446666964886055
0.14909748348232993
0.22135575643778843
0.1387275332204791
0.14080644208785223
0.13165775424731443
0.1278676532475236
0.15190349962607774
0.23358841544918177
0.4233089562839564
0.5374404542585209
0.5147389297210077
0.44490411040315836
0.3357951406519405
0.27262672487427025
0.20820891004637526
0.1728519978543813
0.17605214313720963
0.1564082087496443
0.17472489276801206
0.1644276571945488
0.08088694409752636
0.08970030639951593
0.09753640719376501
0.09297957310119583
0.11375107798915576
0.11045303973324119
0.15936360952339412
0.17572384278396688
0.20719238089553785
0.2344636704107055
0.26773201508494904
0.1627900298611947
0.1980680216785983
0.21773413031772887
0.19380631201035026
0.19596465127407933
0.20938610293847093
0.23697218262027703
0.24298091888572826
0.2684661289345046
0.26331234569847
0.31583767205272
0.41508686968322356
0.5400127875350668
0.7159987960131003
0.7414789404402193
0.623037379290166
0.8038973793864422
0.9381765301843602
0.7768523956394273
0.6635784215991354
0.5575450666013891
0.4864439431627244
0.7427129635819025
0.8388881408667208
0.810531964583878
1.0109310177893045
0.894982822704524
0.7918637108355545
0.8275492871240443
0.9097071956116881
0.9842345350862212
0.7110154883226905
0.7127408540074167
0.40900794957934977
0.3387015124162349
0.4789647893612897
0.4683171009832631
0.5937377155835862
0.5111191349168025
0.5035928784519704
0.5439234163737242
0.6895982101689531
0.7007790330361293
0.6852695414062288
0.7954733868898275
0.6551759009509164
0.7644559950719866
0.8107322220010126
0.9464272678215186
0.8819183365592352
0.6907551045168763
0.45440651730154663
0.37038291381289773
0.7537180531941466
0.7671184471152411
0.5562486743904731
0.5858451186948298
0.7971902014155834
0.6866238123495272
0.7619743611291594
0.8598173517936056
0.9743974876446674
0.68457286122329
0.5156636270469048
0.5083384902249446
0.7839557641144461
0.5721741983955927
0.5515772027546131
0.5251559954293407
0.74453234177512
0.8597863287748887
1.421835735325429
1.1329677810299235
1.1998834164941594
1.069923716685062
1.044684644977504
1.0088384930555823
0.774199889984699
0.7166007582713877
0.7448368244508159
0.8227228756504495
0.7898231408971383
1.1280158205537807
0.9809415924198371
0.6039550123289527
0.5467731644828219
0.6573583849858682
0.7485407303997166
0.7170121475285898
0.45716755793736213
0.510741476181288
0.6590942245816144
0.5884215384567368
0.6623748477752659
0.5976075199903821
0.42334716949180773
0.34792606803981785
0.3814986267514551
0.35753203119962074
0.40614398792288825
0.45429431751665866
0.38090191825153646
0.37170092445898695
0.3630838143030105
0.4515351495966546
0.51616311163497
0.5134662724967818
0.5105683811320343
0.5709269826836582
0.5710031145765975
0.5802942151294129
1.0075891619724449
0.9523310512262669
0.8651217247174461
0.6430877054774801
0.5988733186238875
0.5334361652083353
0.5542515644070403
0.628967061658064
0.7239151592336686
0.7698176289707266
0.6559553508009337
1.18707878064291
1.0251188903594346
1.1637936103203432
1.1371365275541465
1.0122331522458883
1.3807147587126571
1.4023577669950535
1.8172460307975054
1.667467393681664
1.356280538373369
1.1265766138112283
1.3999503128516144
1.1671236755709027
1.0858499075410277
1.0509297804913347
1.1365355542746094
0.9263385899977986
1.1883982863802287
1.3313857468166401
1.6657669759070124
1.2712834523274565
1.6903503805378581
1.433628637079556
1.636248617448657
1.575112796790011
1.9458568023424019
1.9990760324822499
1.5424714456806983
1.3482423587275572
0.8469313067431574
0.750872623246345
1.0308004987751442
1.0809965516768951
0.9987157216506051
0.9453704011107588
0.961662071350184
1.1177167113267639
1.184697755518185
0.9253510908263868
0.9763696832161939
0.8908708585841404
0.9118603425037961
0.9511017840680939
0.9637202560492398
0.7156849381910138
0.7293903317255578
1.2540779446202157
1.2136754613588256
1.0936261493798085
1.0896406563308423
1.3892796629889583
1.240636805261537
1.1413014683871343
1.2239479957997772
0.8360476042770327
0.8360476042770327
1.2102120670819374
0.9278957789450554
1.0692181799204747
1.3001665263022575
1.6181263912935957
1.5945434397095017
1.529909465351102
1.065436827936799
0.8192089370091208
0.9144373015077082
1.0929533533091205
0.9275723748469783
0.973865037716414
0.9207858685758439
0.8902423134651227
0.9213924560333355
1.0795973229590188
1.157995372106619
1.0691282404752391
1.2654440858796936
1.2812574458141326
1.171489386656154
1.7012738782920696
1.6067118782752468
1.7762475658417527
1.763716663512457
1.526163413316223
1.4931623043819546
1.4227431911531165
1.1023783523340054
1.1203540608758362
1.1203059045177495
0.8849939953223025
1.350032947064062
1.2210503777826327
0.9223287278812907
1.0450768059474886
1.0517895456939512
1.0318707606837039
1.0205437614067199
1.2665056554180303
0.9210991859475757
0.7259496003612723
0.5389175419659633
0.2736522163884421
0.18317590314130489
0.15320047194700537
0.15838062662963784
0.15995316285695654
0.16291692176556444
0.1866811082821122
0.15367689671579293
0.15981241202790733
0.1974503751091079
0.18130032921169878
0.1671448394239228
0.28054399158828147
0.6425713018325433
0.22379731450106696
0.21504146550388248
0.18022850728651216
0.13234245941086353
0.16904391473396554
0.09192649135098477
0.13079513631336648
0.19903644596788833
0.23448650884012956
0.24123405208712953
0.3016326846577913
0.26775471859092165
0.24058279863929133
0.34742045466203536
0.3720352189815973
0.25507007026902573
0.3338088855468913
0.3783017944152224
0.39315037894197485
0.49698871205969064
0.4025936853189114
0.33977573393833455
0.2126262638531734
0.19400473996262385
0.18776292469111505
0.2004665413865846
0.09219721164626632
0.15573536004383515
0.21123757400889134
0.17178438388563982
0.14281021547521475
0.17182054002413072
0.16395571884972285
0.14103383209759854
0.14326295730643396
0.12918797304648566
0.1556930297067839
0.34600902226289737
0.47356724817259516
0.4908622934196414
0.423365320493963
0.2192559218258109
0.20244250057942964
0.1764622996669652
0.13183450519493234
0.0759751132608987
0.14350282968931016
0.08088694409752636
0.08970030639951593
0.09753640719376501
0.1397447877509623
0.13529068948868073
0.18941530417777214
0.19405218964957846
0.2044762951550145
0.20013128544773104
0.1975345729423604
0.2765744273426444
0.23855111311964347
0.3924774053266707
0.36293104075439764
0.361648038909997
0.33100313092594835
0.32883350409882844
0.29289436831024035
0.3349587790285703
0.3052093878175249
0.3076459827779898
0.3260208681535843
0.4529755446157626
0.47596839114546013
0.6031966479429872
0.7304198114934013
0.8356124149294689
1.0971730417254073
1.1317304126020673
1.2445474458515848
0.9901475429766737
0.5928410159605346
0.6140982016858869
0.6331210466850271
0.3642610570232595
0.4683171009832631
0.4911028358432049
0.9783065853466585
0.7937758253035159
0.8053722704724477
1.2144228327107027
1.3378739886804338
1.3512780809852212
1.3035392458276958
1.153198185289902
1.2332940931687524
0.8393786958341312
0.9751755480493368
0.9187924594464038
0.6116180674903381
0.5035928784519704
0.5504310788016541
0.6895982101689531
0.7007790330361293
0.5681658882685102
0.5342961948991294
0.4989503758181434
0.4892318606372513
0.460673874827127
0.4570614967515696
0.5675891851012457
0.5113705820498338
0.4944366978094839
0.441632346077836
0.6213889250396089
0.733580734399589
0.5847760022322799
0.4821396748281028
0.4200903643177826
0.4735008885394832
0.6245312000871853
0.6331210466850276
0.5584885995545759
0.5798657710404793
0.6040953508679435
0.5264679332538129
0.5490883057420384
0.6174201043944347
0.8796472562287428
1.153358379427811
0.9267088710620225
0.7887243557378002
1.0849431881120335
1.3801132800671878
1.3246864192340373
1.4317096865313146
1.09078910340089
1.5419258234085926
1.4607324796859964
0.831526785528581
1.0046455195539763
1.1109949350202284
0.8918141773618501
0.9663057284682189
0.7618699459255724
0.6797978494202964
0.521556067262521
0.5108547778574134
0.5946502141838274
0.5484729507922103
0.6037289017450396
0.47828062086171735
0.47474735209368757
0.5861066927892072
0.6074942660229408
0.6475054075917173
0.5883834825112816
0.4158426084046386
0.44855901539070425
0.4584486370953299
0.4845370640269287
0.43895690112024216
0.41447987128400765
0.3593309452453179
0.4447860785396497
0.5262396334673377
0.5811557688889398
0.5014586469660108
0.41532573923266336
0.40328405595867656
0.47867887751678745
0.535886258410024
0.5905810462682913
0.6386955241033312
0.390907387950787
0.38798265544497806
0.40885630945627016
0.48237314322896224
0.8913028659690935
0.9201349626546843
0.8636884308763559
0.6811320059108444
0.8899449795337405
1.0006863142190727
0.9971617648805524
0.7985340699285863
0.7618699459255724
0.6821543540545395
0.7648855759558719
0.7787302580030505
1.0715382242769411
0.9864815287865552
0.7071523089842275
0.4409762031626703
0.5449180828947022
1.1383771707599646
1.1353192255945754
0.9758985652536392
0.9654537855724356
0.7919064379621465
0.9873290485998976
0.9845958159279768
0.8109461024453465
0.7156849381910138
0.7293903317255578
0.9082594902474936
0.8218266657074612
0.9402045318892581
1.0367882615605237
0.9507627388203215
1.1653714685913845
1.1618536203815544
0.961662071350184
1.1059767368995626
1.056839053857491
1.2109945988597282
1.2970787765852019
0.7431379147840943
0.9867989083696779
1.0041606408250037
0.8586928907860957
0.8390638277062314
0.9389213110027537
0.7096494445529817
0.8393082807763299
1.1523924744478249
0.9347665558177441
1.201540848367764
0.9427331661897441
0.6686143658325178
0.5949904245115207
0.7908169482214715
1.176139625894732
1.013305661950208
1.13455465251364
0.7350669352448076
0.7996695301617592
0.9995073913950608
1.0396209677166202
1.3121913445270579
0.750161944767482
0.7972647891315741
0.8891327959910669
0.9498713802919544
0.7097527165258498
0.7619854716569379
0.8556236035955644
0.7958287896375887
0.788947058126169
0.9022964837485519
0.8987711082503144
0.868708702422221
0.9606618055814093
0.7077195538998023
1.0278435795300314
0.7599364085422249
0.7406027775805056
0.6244241733782785
1.2648049261933982
1.16405492283648
1.3009240110588776
1.3104202446352888
1.0933842966577685
1.288505058124239
1.2366634173713735
0.9177520286998668
0.6151293793667787
0.6609032742486133
0.5070658999666153
0.884452144633151
1.0949825144363277
1.4085992442510216
1.607332014252846
1.7272218678696802
0.6639087726380142
0.8408065041632883
0.8207270578245952
0.4579643613677
0.5075992216122842
0.1936086303816523
0.15250396694260995
0.11180031291383999
0.10436517585965659
0.14066121181933403
0.13717950151542382
0.14596963298674215
0.12165899035529974
0.10002100410870775
0.1293333806127127
0.10650783353810943
0.07567061527174457
0.08465746186293732
0.1591246765044454
0.3392659447814581
0.3277974364989918
0.29367746565191843
0.2612423606732237
0.25971310703084055
0.2198824785748738
0.25008132875327266
0.14896827676530877
0.20328733792236384
0.17759347745616821
0.19365178245178982
0.2280825448783373
0.21319223083862562
0.22234366543327316
0.34190855837285516
0.1632234507479596
0.17279627433252845
0.21245063006990692
0.17913545052817728
0.23888469620189373
0.2463777236346073
0.27263610023513823
0.3182043760554925
0.4044574100369925
0.26200495851995353
0.31210910922716045
0.1705454013412548
0.18487871142152723
0.22354105151624218
0.19512140440575265
0.15777007712092103
0.15185021394647752
0.1542536929482142
0.17986642531261127
0.1805500361412399
0.19466978320540987
0.15542902750982723
0.15580677354249442
0.1187422720521677
0.20126522210623715
0.2675258239110461
0.33424753647454436
0.3099995431273366
0.41198474720890516
0.4272082946403114
0.28895536998590526
0.13282561436481644
0.12767356341277758
0.10248313244636126
0.0869534120198116
0.08683991796560485
0.14671607596674846
0.10730188574117687
0.13660340402829033
0.13932354099605745
0.1537467145503687
0.14699730755537826
0.13976229233069365
0.1554428453272591
0.1725601987399796
0.18930050820591107
0.23194101598207775
0.1620610341186413
0.2566416345044254
0.30151276070751426
0.2653533623895305
0.2144562240003528
0.2566874873180776
0.25235420220323157
0.18185203632345873
0.19613323382114364
0.24267392309370192
0.19380631201035026
0.2821424394847693
0.2715525466244523
0.3138545576740702
0.4041779128751244
0.447443561929117
0.4860857662116404
0.6258141875708759
0.7475090494269779
0.2812285562437718
0.2991818179835279
0.5926196520170312
0.7564594941333043
1.1505257387890047
1.1505257387890047
0.7533204703584858
0.9072237499324803
0.9708325532154127
1.0412258819949265
1.2461731846925135
0.8452915339203854
0.8379252795180135
0.8683591810654588
1.0850803244981793
0.9314966701473842
0.8461642915848091
0.795836123529462
0.7168372079671458
0.4596208772330723
0.45055299130190624
0.5052880626160217
0.5815571440591543
1.1457713469206467
1.467844562692916
0.9828842250512889
0.6316039002598514
0.5995589721487268
0.47572508604325675
0.5482339524294442
0.2812285562437718
0.2991818179835279
0.5681600628637278
0.7097819222257133
0.6904479782615704
0.7222379410144347
0.715576249894026
0.7476887284044158
0.6600116796230435
0.6436438788414637
0.6682381799268856
0.6906745658930786
0.6864830803632646
0.5423261445466393
0.5772628491987524
0.6051314971243228
0.7286065932998258
0.789126714990226
0.6511493200894019
0.5161303938597414
0.5264679332538129
0.38200953733582016
0.3529179464200686
0.3378024977468519
0.5858451186948298
0.5175585400321179
0.6046390849088867
1.0307802993759325
1.137049789787681
1.186511535467267
1.179755360260239
1.4601083702837112
1.54300461880866
1.2714468551506548
1.113534669869292
1.0376592093171173
0.9931926239901058
0.9287512373857854
1.169760981555644
1.0238439797235408
0.8962654314022932
0.5718465879731282
0.4513453773589815
0.3769024171993692
0.40246692159444714
0.42111796283575104
0.40867557185962816
0.21485396611085403
0.21180681127070916
0.27712828940689216
0.31892347387783093
0.31323198490583554
0.39717295909396516
0.37730916565078737
0.36129961316769904
0.2559223185733324
0.26961739324831363
0.3098716990686676
0.31455966088819315
0.23963441882176173
0.28404073961438847
0.32067915412530534
0.3615280416454317
0.3551913345146172
0.36871783597054564
0.37390013366296965
0.37809364037988114
0.3488354576005207
0.6846032302507343
0.6019258390119931
0.513648766459343
0.40220439252040896
0.47086880577420415
0.6849126356689695
0.7791938072235174
0.7690050618005777
0.8510526049326246
0.7311064611304917
0.5337654427790981
0.5138078257334361
0.8882010352388284
0.9337824848975558
0.6028706744426913
0.5293927949285646
0.7908169482214715
0.9188854016980579
0.8739331243264351
0.8929401954728153
0.9509371746203694
0.7954363296947928
0.8042871106941801
0.9449111825230685
1.049255059762481
0.9927439225285928
1.2182267782595975
0.9453704011107588
0.8001776137614293
0.8829110573353957
1.066459325614525
0.9133468471395401
0.8862151472032784
1.0267302907189975
0.9829688890561004
1.2747022457305552
0.9738650377164145
1.2402440461381212
1.3360654083107502
0.888857500432326
0.7683962008551718
0.9402045318892581
0.9347665558177441
1.138162399266841
0.9427331661897441
0.6686143658325178
1.0473065144483202
0.9174315763919034
1.1163356224387082
1.1628853800566397
1.0048321831593612
1.0139660432894293
0.8864778633158896
1.063389817813666
0.9862161938797062
1.1437608506356602
1.0856827193732326
0.9669163467431945
0.7178721913788463
0.7495649859271835
0.7495649859271835
0.9451952767290852
0.940260122305465
0.7473959846716524
1.0765005099706055
1.352106163548021
1.2642198190467326
1.29935540976368
0.9337285527281616
0.8772846223552548
0.8801717843186636
1.3597463915387573
1.4664955300565365
1.4793756885362497
1.10903620902268
0.8772040830132547
0.9511017840680939
1.2644142998317924
1.082034853989701
1.2271256203875154
1.3200687165804905
1.5444356980992542
1.3540115001199073
1.2261467980927188
1.09975166353764
1.094441907842561
1.1922997268634998
0.9833168175322726
1.0028896371213063
1.0149838178368489
1.0286548489866973
0.8592226174146766
1.0687284565749364
0.8878066967215925
0.9901475429766737
0.9100315103865803
0.5929640111860498
0.32007782662509277
0.19002544386898568
0.192748546595815
0.20763035965692195
0.22479700346085177
0.26753887515296076
0.24070242515048637
0.23024291708733768
0.2705998161350125
0.29633973575572864
0.296979980423428
0.25917487872147155
0.22227574465166927
0.20492975725861032
0.3421497951914765
0.2656099322475604
0.2331503810239827
0.2276936878642028
0.3356840454056984
0.31233642752393714
0.29758678766614133
0.1786385583415442
0.2446867766330854
0.20124574060223482
0.24132671204979128
0.3143486382298814
0.3259775228931407
0.19272497149585602
0.19849016120196467
0.24629508933257757
0.21864374214276777
0.20409408262623618
0.1900722829979969
0.26576279214321824
0.3728859470828858
0.3832198191498202
0.39863056431266336
0.27732138559384456
0.2876814052900627
0.2958511391951727
0.2335348250296997
0.19376730464749795
0.15873104935972693
0.14053526783507045
0.12226537165972717
0.15450285431555716
0.13510187684711764
0.16535854734135202
0.15388755515837976
0.17557469020752353
0.1387275332204791
0.14080644208785223
0.1712345844993377
0.18368499202973138
0.23543823410393253
0.21542005175795859
0.3890830174490777
0.46271150653992044
0.2933178593114499
0.2694622201692991
0.24298308596977958
0.138407782277791
0.12389628411264668
0.11455439168423913
0.1481913522754024
0.12011216093353476
0.12815924527494058
0.13633040020846313
0.1161632790599385
0.12598049067627712
0.1338694990184071
0.12710417056514428
0.24363302078500548
0.207270125996531
0.2632657866256357
0.243944602566295
0.23425973231575536
0.3020852744734674
0.34530784368977435
0.35867936670454736
0.3351990591159103
0.2776482835347589
0.27091370179641
0.2653533623895305
0.2545303497061728
0.24214163574618736
0.36943437640987603
0.260052834917302
0.2744958774539842
0.45626251774874677
0.48672010870979576
0.5675619978217757
0.9485209081801853
1.0066658079151103
0.9483854924262338
0.8291489683387221
0.9102204344460746
1.1694792141145098
1.3964699031741126
1.2745231220948066
0.9181553991582684
0.5135389894628296
0.5274616326169127
0.529250426554326
0.539963107639784
0.7397290204089719
0.5769524981459577
0.623037379290166
0.6766745959474673
0.8024969376238142
0.7671184471152411
0.5319132450865452
0.4896522490277872
0.4864439431627244
0.5456199654989444
0.7336585176363359
0.6339053185280004
0.6843695917796087
0.5271308601849958
0.4792587262194026
0.4894144278400686
0.6877628621844014
0.7686937446249412
0.6978780231688835
0.5749629420812356
0.468491033141877
0.24503904863383125
0.4014688704972467
0.33720235746364974
0.37046775816534006
0.4744801059202824
0.37417407380449963
0.37297366337204
0.4536079523084704
0.5644376772520862
0.5068610513220663
0.37536173957774144
0.39561447879286044
0.3288353335718628
0.34288208482995686
0.33720235746364974
0.37046775816534006
0.4909959634984604
0.4647444327271779
0.5895158674945126
0.8326184346054771
0.7556439227951017
0.7352012330177444
1.0116394316470734
1.0467802081328512
0.5795641774638479
0.708227608092472
0.5674906664067
0.3970662681633192
0.4438261849217787
0.4933728580442592
0.7493927918695369
0.6290440759285869
0.45152942691227904
0.4596893051028927
0.505777240015005
0.6029239252637993
0.4509921812780797
0.3745006936620092
0.31447792721766415
0.36777596962403186
0.4704590720390762
0.4830221160628036
0.3874251788102696
0.3755141512839066
0.3628638515633685
0.3987813193014723
0.5378947841769021
0.5495297622161315
0.31723365589361874
0.3566840264520805
0.3947626316579691
0.3984138253971352
0.49157575713354823
0.614951767614696
0.5574562208741024
0.448902771368613
0.4731957693673197
0.7112958902606439
0.7594817126670391
0.8174611405259679
0.6606613843845478
0.7247883494454413
0.7272908772791299
0.8739831638229516
1.0009552241631052
1.1654804600958284
1.1810121979127615
0.9344149813496373
0.723274788715199
0.7375370584239249
0.7363789260928145
0.9755039372445459
0.9712812000855278
0.9393974931239849
0.8356018132494871
0.7631907313683245
0.864146508717084
0.8587998916876951
0.7876603995747158
0.843439537772533
0.9234429811707666
1.1706657918270285
1.2463467878902943
1.2793644055983446
1.205102519030088
1.1336074970636922
0.7654396330015543
0.6151293793667787
0.6609032742486133
0.5070658999666153
1.0949825144363277
1.0949825144363277
0.9790403198079544
1.0896770049529112
1.1514398277919742
0.9331839351308248
1.1306765792456255
0.9337285527281616
0.9592126025861913
1.0021071758012705
1.142402335760921
1.1923734580747503
1.1733884382325952
0.8643445329178029
0.4596086290879403
0.7857456178334569
0.9130650215809255
0.785304106633318
0.6546721637379546
0.9633651395969686
0.9294289280086993
1.0604287803946668
1.2770912713631255
1.32006871658049
1.3200687165804903
0.8503552509049087
0.6349750337709451
0.6825061967504589
0.6987806813638268
0.4900545296697284
0.7870859476192882
0.5323286388103144
0.666436588860132
0.8112187031796497
1.0667152816848777
1.1385336523905956
0.973865037716414
0.9207858685758439
0.8538608521725373
0.9213924560333355
0.9684911310117971
1.2572032136209668
1.2702796138780337
0.9759000729485331
0.7979661845474001
0.7777093647678439
1.164362222909275
1.0774098669190775
0.9931325098404881
0.932890770076421
0.8317503826901468
0.8305804638610528
0.5773058577625614
1.0233940409176823
0.8868101760469669
0.8427253995412544
0.5695584965412023
0.6106595427326654
1.111031319704959
1.120354060875836
1.2767980723903534
1.1680284442396343
0.5824386281729438
1.1762774007573193
1.2096444612674373
0.9746615038731173
1.0664364147640748
1.1723790323066046
0.7136564326788254
0.6881147575965866
1.0564251142772374
0.8955720343218431
0.8613602285158587
1.0784353312786676
0.700999250050716
0.2609900765239017
0.17291714151404103
0.12884041622212394
0.1367118515627492
0.15119530975644102
0.17556119427220182
0.1529651365754048
0.16839188874758873
0.1867444568187794
0.20503421069395256
0.22546793108607693
0.17439992397092177
0.19107399059672894
0.29522870134427487
0.23861980693403903
0.2827403031930434
0.18797528507737
0.2063690182827231
0.12798380001017337
0.10587664877717114
0.127263257444825
0.1652393849004398
0.17217149582437705
0.24503740202569985
0.2580003789081708
0.2067573331753007
0.13234245941086353
0.20456475708176533
0.18870299270998867
0.15843271784402826
0.23612489921084912
0.2710420613175022
0.2675235268790743
0.2577211041781753
0.25287917206581656
0.3515507052130243
0.3227636795563431
0.2893349143652915
0.2954901906908031
0.25634971225483294
0.2002144691030722
0.1917557162397799
0.1599357510025897
0.17422664129694035
0.16194499160406142
0.19634495070663266
0.1794691938793672
0.19411827000198856
0.157114943730806
0.17957055644605988
0.16738880748131713
0.16474321428666447
0.17562796962654095
0.18149630620346033
0.21614706305219847
0.35483711808766066
0.5851192625431686
0.5883282918323223
0.27309676909518205
0.18240364462342493
0.18414382962701167
0.1501380262068552
0.1163847969298184
0.10502369645400897
0.13759067807572165
0.11600574750540422
0.12602031944612582
0.1031648498513338
0.11204192500392597
0.11689570868251253
0.14020306968323207
0.14699730755537826
0.15403309989175437
0.16093224284101956
0.1952289337884219
0.2631927314441286
0.25795647999155835
0.20774385906322498
0.23599271964048393
0.2004257449443277
0.18686592198178564
0.28476762109496734
0.2073966373982175
0.23964566910227136
0.24690692738064146
0.1974329150493236
0.21499232865214038
0.26325717911249213
0.2856528683756087
0.41810703078898476
0.5607864783967959
0.6537955229400068
0.6827587448385875
0.6230194594531787
0.7742224542577492
0.9078695567649144
0.8359476995889568
0.6983072348126047
0.5468271627946081
0.48587301331791954
0.5700714262583917
0.7510205287534285
0.8796472562287428
0.6752356729886462
0.4900841141029674
0.5753200851796778
0.4010239002498908
0.5167514354078677
0.5732538908661204
0.5843328447942255
0.4609061884593454
0.5968142648414342
0.6060803083228959
0.6592534970771957
0.6490942284852929
0.49538678525795204
0.5418040471301222
0.5761624318859925
0.4010239002498908
0.494174379195512
0.5847760022322799
0.4821396748281028
0.4200903643177826
0.441632346077836
0.5641503059058545
0.610852849697101
0.5489203784359791
0.4182822946485591
0.3986394217176266
0.3901397349071694
0.387947352910885
0.4248890144822238
0.4686291053603733
0.5130180845763653
0.4119703002556073
0.38150409982465516
0.47925409648139095
0.7731993055438414
0.8450459372519217
0.9022964837485502
0.8223364446321842
0.7453713091502912
0.9694415458961532
1.1698981207507755
0.7680494457907968
1.0104772891377292
0.9436233234424226
0.9831499589698259
0.7801116139981192
0.7293866447966825
0.7441269237648902
0.9643049082972129
0.88534706694936
0.4624326494336789
0.4514598853572147
0.4511139973537928
0.3143458834064835
0.3016743387813141
0.34281696183488153
0.42354759088823596
0.3628638515633685
0.28684360240665585
0.30351880196885395
0.31093830079795115
0.4163935618307727
0.3280526715352923
0.3338088855468913
0.31738685724409754
0.3910519741576709
0.4250721333051251
0.41729528923807896
0.31723365589361874
0.35207955870951857
0.27373141945112767
0.3921165801802275
0.48718540938143756
0.44672427168432455
0.4388689425553179
0.39420249423961284
0.38683763034897684
0.38664226735292295
0.48012295290745066
0.7647929676365176
0.8089866527272446
0.8256384167211894
0.7073411013537069
0.620726338063927
0.7060676594632125
0.8543846238044925
0.8902813027637406
0.8615627824010514
0.6645521542057993
0.6572179340505447
0.7285799949856776
0.5542515644070403
0.6353536192771447
0.7821162901295396
0.7570676391870164
0.7554300097559039
0.7581474696563113
0.7229527559851314
0.9941189487509341
0.8562951516517061
0.7798652549534714
0.8510051607988736
1.161692242270802
1.369278433961942
1.3146843962443588
1.2306221059789149
0.7654396330015543
1.4261345175025852
1.1608205448932594
0.7493691682430477
0.7175088086279237
1.1769934528138242
0.9694803788467278
0.8822276919434487
0.5812828135746756
0.8337254251422516
0.6675423872530609
0.7388148606605885
0.6792390531930064
0.7374383739490553
0.558075702598097
1.1139840300291086
1.1026727538412548
1.016999034456092
0.7038249698731482
0.9367874360833965
1.250900191469742
1.296210904653452
1.1221178963759881
0.9973746190233859
0.7972647891315741
0.9379687580815792
0.9521285656607656
1.0654368279367983
1.0454663163414164
0.9633320179774674
1.1617989759723382
0.8394581101214158
0.7779161704030728
0.8308718590725344
1.715792146954626
1.5213220977529314
1.1845360445447568
1.4064454027148185
1.4931623043819549
1.63240326503399
1.7107050789265466
2.014255907192389
1.3642710868247798
1.1232454134443426
1.3602557629135044
1.2905816109247388
1.2022862311604736
1.5769679460537316
1.0827439612462888
1.1295049241962003
1.2661670699041325
1.5104674193333942
1.5776674790376777
1.24718859801159
1.1584187213432977
1.2212367022106205
1.0681370017709917
0.5614505714570152
0.6684379851898791
0.6689353963822731
0.662155032159417
0.8106052230437434
1.0350146764362722
1.0516621563801476
1.0422307253992817
1.1252548653899073
1.4556143650094657
1.4271714357268273
1.133599456530766
0.6886620130136457
0.6842431191546722
0.650577922938435
0.5596658402558903
0.5560191380629642
0.38573392645773114
0.1877950340305511
0.1285424209455612
0.10436517585965659
0.15189910766062104
0.16474024542452526
0.18962196061756856
0.21854459604905363
0.20196294486528485
0.16466016856850466
0.19925572334872174
0.25054311201883345
0.38339534314561313
0.6568217771570419
0.2893758227604233
0.24500351742055224
0.20821660606317335
0.17120391175934346
0.10876451593486895
0.1205170040692069
0.1336130531700491
0.260233375659482
0.36528282459411593
0.3865056119983891
0.6286790320656844
0.5630264930297748
0.24584899432848925
0.2011086648068815
0.21111721043086978
0.1317165368741759
0.11866451333184609
0.16853441872262848
0.19580703616107153
0.2537266896929253
0.45447863233579283
0.4802753326322791
0.468996442079551
0.44844766733309105
1.0143523793736953
0.9987157216506051
0.888857500432326
1.1287620020040408
1.211434166453744
1.1804447266616953
1.1420323125167862
1.193284863224355
1.0325468024097695
1.151439827791973
1.151439827791973
0.9837045916345453
0.729126871368651
0.8443867258909646
1.067739795644778
0.9379687580815792
0.9521285656607656
0.8562359237673459
0.7715955207741895
0.6684248360260725
0.4855559946572886
0.7166341906372415
0.8711999077536248
0.9434816667794949
0.90791019848664
0.850951138717511
0.835005430369284
0.9806452706607247
1.2050357985540596
1.044684644977504
1.3872123821426288
1.1719352361284257
1.1114045438952156
1.0446264116778385
1.4262160953309018
1.1695713653573656
1.176818677548983
1.098512079199982
0.9263385899977986
1.0319418557526832
0.7495649859271835
0.7495649859271835
1.0308014995544885
0.9393974931239849
0.8096794118092964
0.7631907313683245
0.864146508717084
0.6023494777563104
0.9619356124994063
0.6088211385941907
0.8295753822012077
0.845245205239758
0.7990213078102509
1.124228433059038
0.8202236825372975
0.7578144580665619
0.7397089722023716
0.8085573421405478
0.8819691755797173
0.7406027775805056
0.6244241733782785
1.0259783520851542
1.072322966816343
1.0536890897157416
0.68457286122329
0.5156636270469048
0.5083384902249446
0.9970396877453003
1.1341728509944662
0.812372232910392
0.7412276550732652
0.898414365592216
0.6230194594531787
0.7742224542577492
0.7776829157082892
0.6291323173722924
0.46169123790817607
0.4434917878867796
0.32351760099921584
0.460673874827127
0.6325008769111061
0.6315129956391526
0.5938931559025339
0.5096980060263112
0.569377541235648
0.5830332494165106
0.6373562895994926
0.5864686211998534
0.3337989450877117
0.36973016362155464
0.47925409648139095
0.5702343836357109
0.548934590817508
0.6247359683979119
0.4351198662997315
0.40900794957934977
0.3387015124162349
0.3642610570232595
0.5173106869108074
0.6248531317803263
0.8495949924403651
0.7480335951281006
0.8386977796921264
1.151203096229698
0.8452915339203854
0.8379252795180135
1.4814343656720501
1.3013394054489187
1.56679487472254
1.2068748904047122
0.9562014065574574
1.0057712300036323
1.2448330119595348
1.3147368946711049
1.3936734011314191
1.2478870785920744
0.7690493858592373
0.852225637276094
0.9624988285474192
0.7890015816906873
0.8221093048057027
0.8134505048170194
0.772512000492686
0.7433187948772875
0.8707102208201275
0.9337080412588824
0.911941762531429
0.8828548807306078
0.7933962196126367
0.8567058140158462
0.8973326366809387
0.9659780061730466
0.9636318233389933
0.9636318233389933
0.6811320059108444
0.9065963785715916
1.4500979785674764
1.6155752004901436
1.5947151173451417
1.327635004586016
1.0205437614067199
1.2368707803460253
1.1370426921286083
0.9326220144253712
0.7883986954426356
1.4907554404478993
1.4091336404618753
1.22085033692812
1.0266248056549727
1.0613123732006915
0.98258660623196
0.9938462227267472
0.976696857704645
1.2114947199943404
1.2082776424949453
1.1021660334583525
0.9374309457679121
1.2022279093261121
1.3661517503536675
1.5680424921922795
1.4108673128827571
1.145196668627737
0.9030280760720911
1.3729533856947924
0.9324828232629112
1.0962239429608944
0.7418505330628334
0.6324709775340126
0.703393927908159
1.1833755959072825
1.0389193447108362
0.8469313067431574
0.8112187031796495
1.17562023294064
1.0794265922716797
1.0765005099706044
1.1337323329236282
1.323654614029351
0.8500420767166849
1.1027674029585965
0.9905437893188932
1.199730491947096
1.2886592111609485
0.9553526854559253
1.2355817793115316
0.8341409135340979
0.9030280760720911
0.817703585583517
0.7344072058991349
1.285799915977913
1.0076025848387355
0.7869260268398404
0.6690255675416499
0.6942611475729689
0.9643720431139114
1.0355046721155947
1.0619884881071833
1.1021660334583525
1.1566876362399252
1.298468155251281
1.3106904222644737
1.0443435575644588
1.069923716685062
0.9185808405469847
1.0420061053248497
0.6536901729397756
0.7045157623921048
0.7541854073135033
0.8633127514025631
0.9755039372445459
0.9357701185087436
0.8008877845177292
0.8913715646127871
0.9302715037033035
0.7847927005481946
0.520900876415934
0.95502635204114
0.8414398775961145
0.989924783760999
1.1911593896927557
1.0839641440768129
1.2802208662772463
1.376619095820815
1.292815881620086
1.3077755561973747
1.0978218643982618
1.3288875374806717
0.9185808405469847
1.2043751699246579
0.9439199659697257
0.470906998953775
0.6149199224909644
0.8942519348233106
0.9919824941037904
1.004263151719594
1.107808013578271
0.8654718592478217
1.2942725803470927
1.352822876709233
0.7223836528333316
1.063219528253826
0.9121653827713287
0.8719338811431662
0.8800289622793332
0.4091273721307136
0.16785320355112834
0.13217313458074406
0.18560807615887853
0.27332288387541587
0.27189275904182303
0.26552878968692456
0.3068981068526624
0.3536962786040779
0.38878094341846214
0.2940273466536847
0.17439992397092177
0.21948469651787297
0.3784113949078693
0.4916489219840991
0.4680933897272159
0.40006768245541735
0.3276673850229689
0.3292866104300269
0.30709521741841966
0.17913545052817728
0.23888469620189373
0.2463777236346073
0.39220683370293
0.46474818260644635
0.7629429991341581
0.6358029215169961
0.5728458725356386
0.5151688714543532
0.5177434287794203
0.6395148167696858
0.383995353797879
0.5808441492411468
0.6240956426709167
0.6368363975654039
0.9755921474167782
1.0284414371024913
1.1099481173754688
1.2129940076520291
0.8266285549408546
0.7873605753018306
1.3239078336651642
1.4848803251265115
0.7883986954426356
1.0983479888429049
1.2284065860523026
1.184282577262733
0.9208463281486521
0.6057937633962848
0.49687063446562474
0.34376365393908426
0.2242297109887911
0.2023751407580033
0.2793682376756441
0.3400323547875715
0.45673995980387805
0.496822777997708
0.3516750536434589
0.24584899432848925
0.2011086648068815
0.1805431966320684
0.14681199724652522
0.19634502200790993
0.11928512639283162
0.14312090583388676
0.088547347483666
0.25219442658985214
0.3372151491737303
0.31583767205272
0.41508686968322356
0.6294092893943801
0.8468873390655254
0.9822673736564561
1.0390817478810832
1.1375073673814082
1.1403369238806893
1.133973469554919
1.0603345723991642
0.8792211277504424
0.6775620789868849
0.6674025418980305
0.8339022166013337
0.7774275493859829
0.7961659159416287
1.1688028865047142
0.9938696643363768
0.9797133310087967
1.1029899316620038
0.6590942245816149
1.042353247440288
1.0423532474402877
0.9280183561106284
1.1002005077998245
1.0351766300554253
0.9517750569099788
0.9873290485998976
1.0050672706347086
0.9480649719119276
1.2339386461707733
1.1944994139809184
1.0389193447108362
0.8933173790724913
0.750872623246345
0.9509371746203694
1.0422307253992817
1.0886132404658768
0.9085613195690782
1.2199068733571403
0.9606464395258836
0.7717040705115943
0.8370773814115254
1.1769934528138242
1.0605393032924606
0.9682458365518541
0.8689021964596905
0.7998808043592628
0.9246313861355944
0.9425310114408002
0.7347099055674418
0.5248362517380856
0.5330197853491114
0.4372222407425085
0.7619743611291594
0.8176857443381577
0.978431069927585
0.9701659930760288
1.1533369264895244
1.1565344299238551
1.1830168250123831
1.1373593589163717
0.6742935454013741
0.7848978522090038
0.6857335375993046
0.6784894622555717
0.6638209955392943
0.9678938737906282
0.5579657755268197
0.5487029760933274
0.9078630146099954
0.467273748308959
0.635422785667229
0.8649935138012653
0.8833694412200133
1.062971840183155
0.9100315103865803
0.9349217582577488
1.1459553515404473
1.0755296343678662
1.1365355542746094
1.0266248056549727
1.0613123732006915
0.9576479143215103
0.9449602421775769
0.8446201500183336
0.8093561650484165
0.9956243091701792
0.8200079238206625
0.8922154871995246
0.5941809669003123
0.618344044243765
0.7583118563116344
1.1433239009500593
1.2290366012295568
1.2290366012295566
1.276255040783842
1.0819531256827
0.8451542547285174
0.8259952674873932
0.8014258926069515
0.6611840352016224
0.6429024728617316
0.8743611960674241
0.8307564159189992
0.8976804331511363
1.1412656905250955
1.2858565688908814
1.0968762411676511
1.1245432301751968
0.7911464611748292
0.7166341906372415
0.9782782717129054
0.9253510908263868
0.9126833110459249
1.0048321831593612
0.9973013541602003
1.0925627069493502
1.2803687993289605
1.4065259467477195e-15
2.9822716984172073e-15
1.0229708192341311
0.922801917945456
0.8960198207131662
0.9647529295566579
1.1421905259693856
0.9739395762368016
0.8828548807306078
0.6918613446906228
0.779112294351236
1.061585634659792
1.1074355226186687
1.07381175794664
1.1381923774406033
1.1994835177968115
0.8424033678566171
1.0898206245802922
1.025978352085154
1.0302031986819244
1.3540974811372457
1.1241618127794495
1.1238306335653292
0.9278780782445254
1.2510513080382841
0.9374309457679121
1.0597181620869751
0.8648987615915225
0.7747242641902966
0.8707102208201275
0.9337080412588824
0.8204687059297051
1.0735148272582142
1.0466475878970107
0.8081964688167858
1.266840281170153
1.1719993397678565
1.1652028614193612
1.0457519162607418
0.831188685420858
0.6274453272877342
0.651149320089401
0.9674063506221526
1.1890401897529193
1.1855809042607783
0.7291478816594607
0.943408757348594
1.51241509312748
1.3718041950791586
1.2851328151053145
1.2138614041295475
1.2587813152163094
1.3703979687234111
0.8702421092926681
0.7940439631846988
0.9325048082403122
0.9085592067759749
0.9282140458251853
1.1645646980178708
1.1833755959072825
1.0492550597624806
0.9290916218863894
1.0429516871244062
0.9124394225719163
0.9217637394271728
0.8836946506777085
0.883102329367796
0.883102329367796
0.7303625567541749
0.9189049091810852
0.7973788985960563
0.6868673601357207
0.6000326341482322
0.833902216601334
0.8271060950530715
0.9870131382713908
0.9428090415820638
1.150660196168428
0.90272141911616
1.1458343309369508
0.9360648116875411
0.8338826236847016
0.9738650377164136
1.2275790913710196
1.2476467470947235
0.7516933982505547
0.6888135360002462
0.665719102162711
0.7883890477560358
0.885614885540095
0.931292227145663
1.146192597941756
0.8414398775961145
0.831188685420858
1.1335002337022293
0.8952795254704942
0.8878629940130056
1.0598209866947519
0.9425310114408002
0.9082594902474944
0.4156938282279826
0.37847673659558556
0.8797479141802127
0.9591861966716997
1.0665915324714035
0.8288441253193138
0.8044179289938828
0.7763691475330582
0.74453234177512
0.8597863287748887
1.2637465304607294
1.0090470917805896
1.239466156496453
0.8683591810654588
0.9837045916345457
1.2819730208701303
1.2640011163091367
1.313078566531699
0.5436583366591833
0.16785320355112834
0.1623942077848253
0.1375163270263293
0.14975090146059017
0.14927132780655344
0.152748122899432
0.12165899035529974
0.10002100410870775
0.1293333806127127
0.10650783353810943
0.07567061527174457
0.08465746186293732
0.13300814219338639
0.35231755091982464
0.22258550639353847
0.2674199464636492
0.2951922745082763
0.25499376336768065
0.29079113185659977
0.3053169264578632
0.2358520020330293
0.288303607172072
0.20478149267837442
0.22256735119165932
0.2504946829472917
0.3759461980801056
0.39668223685290793
0.32901939318608314
0.3088265144495887
0.3095156260651852
0.32888614093873625
0.27513000566719126
0.26964285985135134
0.2477874158162264
0.22692103814243986
0.20023752138978282
0.35162945000847295
0.37803336468102744
0.31164743381542453
0.33315607588109414
0.28493320607355654
0.24004010229777462
0.2016916438176794
0.16720311097718676
0.16289672075288136
0.13085977446281713
0.15450285431555716
0.09564832280716293
0.10656109835377908
0.1106638151648942
0.16822079053670214
0.17145530019708421
0.17557469020752353
0.17705620943035935
0.17708878877492978
0.22662979366359157
0.31707393234724723
0.41966889111258304
0.5883863667168766
0.5007778345704736
0.558113200907618
0.3899061043510493
0.2887421372519547
0.23683116896888284
0.15295661619262851
0.15331912764348912
0.1345479613243377
0.11467223370874023
0.12815924527494058
0.0999292188668885
0.1161632790599385
0.11999024145321394
0.1182489888477871
0.12710417056514428
0.20036605941589705
0.207270125996531
0.16312289692047557
0.24414471781055025
0.19668459330179267
0.24930881140428815
0.24150325318685759
0.27967760212722775
0.2129761516770024
0.2051368180316342
0.24977117991546366
0.30421067812692637
0.2580283246374126
0.25367047576864793
0.28508340945353694
0.27014809495347486
0.33228129659406674
0.3568286949868654
0.531136178454697
0.8326184346054771
0.8172202126233851
0.8863682625225211
1.2260802675314304
1.1857532656600571
1.0713649695935747
0.8461642915848091
0.795836123529462
0.7794341134708009
0.5172184508075882
0.5528991480667604
0.606071292013777
0.681761291358044
1.0509778517435688
1.1697765997391074
0.9647529295566583
1.0493972799089448
0.9281153557142006
0.8042871106941789
0.696949457048256
0.7282595514290213
0.537253747650506
0.4600237902071273
0.7007674572089609
0.7445962579279093
0.6480522298215152
0.6364950493241144
0.6786906773641586
0.4809955673819384
0.38969502666772937
0.6832551720223682
0.6877724415386446
0.6117349675673578
0.3107033977687633
0.4130262617197937
0.24503904863383125
0.3317101743679621
0.47744999146015527
0.5572651528439535
0.5330230432385569
0.5559766838069727
0.622330680401561
0.7666600906222806
0.9697456810208251
0.9270986524262261
0.7458241266277754
1.0209090623666681
0.9384363599181963
0.8314289223531196
0.8460477676144212
0.880802991013288
0.7679761784129846
0.7492558605808953
0.7491408758598412
1.4196844283040482
1.1365355542746094
1.1441092509330895
1.140227782655078
1.0493496483484974
1.2000892476568634
0.7077195538998023
0.6741452152485288
0.7989817433950811
0.814261153805149
0.8591862438428116
0.6186029807882741
0.5418202280750435
0.44191937980103657
0.48198779560626065
0.7285479463306858
0.8360231801676495
0.5523761029523316
0.5021035392755052
0.6037889970564186
0.4884965153193374
0.6080302909720594
0.5576971403013917
0.7126738207337266
0.30600918008893807
0.2891466840782723
0.35376467979258475
0.31380442868992325
0.5294260203298307
0.48366789290416706
0.4418874989465386
0.4573616078460103
0.4178059429508127
0.38177895236215625
0.40888924232530865
0.4671609011838447
0.47223738418029654
0.40914578405335816
0.6977087752652992
0.7184025316175336
0.6907647683763127
0.6408398586450157
0.45152942691227904
0.5169074172193174
0.5464951432696131
0.667678026120032
0.7272660065961087
0.7615457741099445
0.6732651981679865
0.8847743155109332
0.9641546130009769
1.0045206294467808
0.8125569908571787
1.0318707606837036
0.8517960380501796
0.7850590413533678
0.8295363246848891
0.9279142962721185
0.8782558008812882
1.3599011645321304
1.0557896921066625
0.8541907324486656
0.9839408683976204
1.0890613984928432
0.9451952767290852
0.940260122305465
0.7473959846716524
0.803285199706463
1.0135385634860572
0.8909415302845849
1.077409866919078
1.190092801242664
1.0764659344625387
0.9679304676557369
0.8112187031796505
0.7248587294046298
0.8390637046888361
1.1003294102246457
0.9509371746203694
0.7954363296947928
1.1170876760070914
0.9217637394271732
0.6115793239686109
0.8885397151367612
1.0862919495945713
1.0430338689879441
1.0654368279367992
1.1462171811126194
1.1399767949049084
0.9931325098404881
0.932890770076421
0.7898102557667737
0.861979869839852
0.9433494750327418
0.5842164015264475
0.6356442700282133
0.9459542573367072
0.7393263987628252
0.746024088957386
0.9217530289562508
0.6000326341482322
1.0522754522559865
0.7187017284755701
0.8178527827937762
0.9178787626865682
1.1694937281174995
1.0276032226110947
1.145163905241567
0.932843202600423
0.8495227460579412
0.9624168924404304
0.8562915336443742
0.8125569908571787
0.870047375748308
0.7102109336237523
0.5694460055738884
0.5504564384316547
0.4592835496270285
0.6142469009834192
1.0307449193717775
0.9931076951269907
0.7618764563485533
0.9474037282144125
0.8112187031796507
0.8913293499406398
0.8562325094789901
0.7153718228638554
0.6636398895728443
0.7731651157081258
0.923367979597434
0.7828268571968325
0.7355289505424534
0.7578144580665619
0.7397089722023716
0.8085573421405478
0.8186982228511038
0.8943437228207448
0.9006239256613262
1.000599222866888
0.7254862626112957
0.9528363428745636
0.9637202560492398
0.9084621538089025
1.0677764984476428
0.9124394225719175
1.2259940373929898
1.3323500917460103
1.1919589384240974
1.2138614041295481
1.3368289745899224
1.0351766300554253
0.9517750569099788
1.0633898178136658
0.8500420767166849
0.7416429807420908
0.9810956547047864
0.6704210846080689
0.36961595764824945
0.1756589201793804
0.11180031291383999
0.13653328798151196
0.1367324015564325
0.13717950151542382
0.14596963298674215
0.15608346840683235
0.16642534951412996
0.17230418999888242
0.12103218144808096
0.11081439621730677
0.0916416051406362
0.1883858228372074
0.3392659447814581
0.14896827676530877
0.2160322917915436
0.26952301204110474
0.2063690182827231
0.19155325525844127
0.11903464395125192
0.15028418035692723
0.152118441272023
0.17217149582437705
0.178854356460298
0.2303454138185476
0.3053512968148014
0.26961739324831363
0.2729257816590755
0.27510270704882894
0.20493603852348752
0.21795179147804938
0.21377191180196195
0.16570040877019349
0.2565423383092136
0.19994345216674894
0.2634729450468761
0.27650026152280166
0.2745912642531805
0.3710365378398289
0.2602625211816199
0.24006346111797333
0.1917557162397799
0.11742796290975095
0.12328135844729243
0.2023751407580033
0.18296068064562696
0.1062714978238774
0.19125839166968164
0.19606700446358322
0.21728375517822907
0.21078932433738098
0.14724986790351635
0.14243767586627504
0.14453027798309676
0.29786458269597516
0.4214505792699049
0.5837709291279058
0.5578820577529822
0.27309676909518205
0.18240364462342493
0.18414382962701167
0.1501380262068552
0.11190777916817332
0.08001319551497915
0.12098757293764062
0.12538633892260073
0.12602031944612582
0.11418211846029001
0.1294549354848358
0.1061794536384472
0.1544989925772847
0.1831792491478888
0.20996064142331683
0.19668459330179267
0.2524167075376747
0.24150325318685759
0.4013333742642685
0.32156660693918965
0.31235277654328547
0.3293080804598748
0.16240325104874756
0.22157435251543844
0.227047771731456
0.2156320752392986
0.3061279367554282
0.22418803502929038
0.19292951631630562
0.32125348957743644
0.40725947019670194
0.5550756802425872
0.7262918696673278
0.7211160219004626
0.6639087726380142
0.8408065041632883
1.0151688602289075
0.8267066298880357
0.7267518524153632
0.648069895845131
0.5791501690994132
0.6366299485204854
0.7329244389292399
0.9601835942666508
0.865780123440947
0.8954422845323085
0.9780501804963878
0.6379246780266596
0.657399983114985
0.7069171514873372
0.8768660667667526
0.8094682081532801
0.7614431533338716
0.917687068722067
0.9699042326269824
0.9869030858967841
0.7927204387975089
0.5118678868853311
0.3825246206206261
0.464352273869338
0.576374538415792
0.6006006301755079
0.6119144134921687
0.5530692735388172
0.5132545128178166
0.7459473237219035
0.8114610852369182
0.785517811874486
0.7177531312942121
0.34285827347952375
0.6343939139180553
0.6334081305065129
0.5903401109771178
0.6865559346737586
0.5394225364883724
0.6243180378629318
0.6127049201851585
0.6280901336958454
0.6123994397701452
0.5288475424203471
0.464379286042174
0.5074007066741326
0.44299480370749755
0.5144864886880044
1.1413014683871345
1.1017468928550163
1.2488786441174244
1.2739929591624484
0.9837045916345457
1.190813742064341
1.2192155209340494
0.803154889965604
0.7184680886171325
0.796136188351871
0.8094788981611044
0.6778237875363878
0.688445085931031
0.7811956123144549
0.8053369648828953
0.8496626095613109
0.6907647683763127
0.43284206195162483
0.5249287327218726
0.4343445364536136
0.44855901539070425
0.48757338923319343
0.4918759008080974
0.336814512509414
0.3697355818099162
0.38121096879721716
0.34983353635958386
0.3537503799943882
0.32479787703261187
0.2358520020330293
0.36871783597054564
0.35600816385526435
0.3309609414647332
0.3537503799943882
0.31822393605189353
0.42424691777514717
0.3437118250790422
0.5369570948151007
0.5058981619155366
0.7363789260928145
1.0264353511263251
0.9178935773521804
0.7402582413513281
0.615616467289162
0.7023181198044948
0.7376339679148252
0.5576971403013917
0.5278433120662318
0.5937939906677911
0.5709269826836582
0.9151638944439638
1.1608303266605524
1.4567069305356428
1.4355128498385532
1.289930150836351
1.2010425349923
1.1522647599208609
1.5840082890982166
1.33435349627785
1.3264983432059645
1.4386265253821282
1.509883253707543
1.9672057139088588
1.733023894853405
1.9118353037011153
2.044934628785844
1.4581230751838812
1.1359982357219007
0.9804423368493244
0.8509954536209289
0.7443487347654256
0.8176505326371772
0.8868101760469669
0.9249009296611411
1.0057303161873699
1.0057303161873699
1.014849607886106
1.0084789648916952
1.0886132404658773
1.0949825144363274
1.0311022666607401
0.9437594691506527
0.9775829232437763
0.9797627443353367
0.8008877845177292
0.8003498782130997
0.779112294351236
0.9893192978062356
1.0459465375049661
0.8868101760469669
0.8427253995412544
0.8772846223552548
0.9186784807449261
1.1197888105218834
1.0516346970709947
1.0109865699844292
1.0499334158115807
0.9142582859323904
1.2462856424994435
1.2201259224945074
1.1841036578382647
1.2898141866862733
0.802405050108982
0.7306052096654926
0.8543820649710127
1.0293385914592819
0.8032118750902548
0.8870785789388681
0.6757457582921298
0.6187030854736775
0.9077652481959502
0.7910513717740066
0.7501488287148732
0.9426504735894379
1.0946341055892423
0.7725120004926858
0.9231060296989276
1.132001687996996
1.1020710221531727
1.2080734927342411
1.292136042368015
1.0325468024097695
0.8857164273734959
0.8857164273734957
0.9708325532154127
0.878801534267347
1.023416248933072
1.31138712683743
1.1744112967237506
1.1524099489736421
1.0234988988406575
1.6814894417189838
1.5637822249794167
1.3901703526795286
1.825741858350553
1.7039206055587004
1.4979655179955753
1.3397761688729697
1.3397761688729697
0.9204843231689344
1.0761176926794296
0.9096359225800337
0.6115793239686109
0.8543114573830639
0.942573564852688
0.9487898054558612
0.7973788985960563
0.6868673601357207
1.01395441556604
0.9728266602619637
0.5499020673742426
0.9078695567649144
0.7510752651883972
0.4366126785632796
0.17420556933585962
0.09730669817006732
0.16165699178955173
0.15838062662963784
0.15995316285695654
0.16291692176556444
0.1866811082821122
0.15367689671579293
0.15981241202790733
0.21558281246938085
0.15594402587335904
0.11424351852806407
0.1759821524956923
0.35107467127899294
0.3062615725210084
0.24368937211526764
0.2598967627536832
0.20323422986633805
0.21406278620501493
0.1667828214905979
0.19634495070663266
0.24390733392622324
0.2809223912028805
0.4122929325200932
0.41868553797165603
0.3364041927032449
0.27913641852454063
0.19272497149585602
0.19849016120196467
0.23764697463098683
0.2466728897726555
0.2577211041781753
0.28419153246292067
0.27373141945112767
0.41189699412070907
0.3486438264129235
0.2954901906908031
0.23062385102255079
0.2002144691030722
0.20453941540324574
0.16679115680299061
0.20578298581927215
0.20968184724519295
0.1772186254884924
0.1881639516971587
0.19056396334626957
0.2180689365299618
0.19466978320540987
0.19485789770998205
0.2080131186616783
0.18645182940461197
0.16949290447898885
0.18683153059090696
0.23713721291471715
0.3294594114922297
0.26741917686955463
0.2600346762432205
0.20330030294090157
0.1541939007051798
0.1559680936418363
0.14713489501053162
0.12012408621794884
0.09080251759647508
0.14407919696342814
0.14435298847977981
0.1031648498513338
0.11204192500392597
0.1464329596938818
0.1781303290836858
0.15936360952339412
0.14466866567920914
0.19719330020654166
0.2344636704107055
0.22116681026624035
0.25624302636926644
0.2560346559943623
0.23264986836422744
0.26331260718618144
0.22834577478755935
0.22881857121182467
0.27801181666377806
0.25421952610042164
0.2903529339967107
0.3219409239316565
0.43036065155972153
0.6195963101268595
0.8491853734762125
0.6561351873007188
0.5153145553588362
0.6955419152819696
0.7779161704030738
0.7956060407064828
0.8958399429012358
0.9382302199299889
0.8028496482502453
0.43594317229050417
0.8635447796820446
0.7949361521457861
0.6174201043944347
0.9036793103534827
0.9701659930760288
0.8463244372809459
1.065651743797817
1.5025194778356337
1.3872123821426292
1.6015348938503082
1.5811388300841904
1.1760106112778572
0.9371019316744136
0.5408883867519877
0.6742935454013741
1.0905175519068715
1.0345687557879062
0.6671130543045501
0.5938062560191425
1.0800619023436953
1.2597346478949338
1.3274001261046968
1.1261737423837566
0.7031009021271983
0.6308655106596617
0.6637976699448809
0.7012796460618802
0.7475090494269779
0.6684260203465141
0.4957261831306934
0.5200753256789229
0.43765465463478315
0.44284476828160296
0.52790721327874
0.48111950480633575
0.6237962365836255
0.515483488641704
0.5539766033333103
0.6915545878736894
0.8393083625142578
0.7418602859713476
0.5928410159605346
0.8291570406307861
0.8838546755530258
0.9662538475578971
0.9307071911732386
1.0898311835225494
0.8592226174146769
0.8351799031572417
1.1608303266605529
1.263278024696384
1.306452289522682
1.306452289522682
1.0640501678167134
1.0395003996088468
1.0869165485713361
0.6687718719840774
0.6067293226952448
0.5879292689441769
0.5706057582576005
0.6225081726563695
0.6059590500499051
0.5495514513215806
0.33719225215810006
0.34107851671043576
0.6331202104175664
0.4509921812780797
0.403396054400906
0.37540786586995406
0.2700180202185363
0.46718888904512557
0.5177396323519168
0.47552931067921117
0.46985810612720186
0.37540786586995406
0.4214906816127002
0.3143458834064835
0.4034402509638786
0.461542252051167
0.34135669641282623
0.32978058359816
0.3104506393006696
0.3288004371668438
0.48718540938143756
0.39497642337279343
0.3127548493206867
0.3978145320463306
0.3228670183001241
0.4026529940576378
0.4996355077917669
0.40941122559323107
0.43109923532886074
0.48979872806126123
0.6139001468168713
0.6137185462169426
0.6837463521542162
0.383995353797879
0.8234703461259781
0.7348333017285124
0.5259779136850059
0.7880095297639352
1.06450760440944
0.7890015816906873
0.8221093048057027
0.9818344551787801
0.922801917945456
0.8960198207131662
0.9647529295566579
1.2615981554331541
1.150834161920455
0.8935861516491186
0.741653072834536
0.7891863228613525
0.9100199484911189
0.8390298383700237
0.781897374699032
0.7204649903616782
0.8024295777896387
0.8818588074846783
0.9355654333995853
1.0893646784107922
0.8725138735149957
1.051766093786011
1.0791560884129445
1.2820553033395112
1.1729380093199637
1.1488675660464087
1.2147532208660865
1.247880492479544
1.0694948192294964
1.2691546546110433
1.3083452090290444
1.0585551681775072
1.2566778790452937
1.1504165811160136
0.9441542612091924
0.7731651157081258
0.923367979597434
0.7303625567541754
0.8042938469334394
0.6337102405939931
0.811547514012186
0.8185337540602802
1.4812539231060995
1.6310091113849792
1.5935001116286576
1.4462755522883155
1.20131137224831
1.2913060719697182
1.11557358375415
1.1770161706283022
1.42776471491327
1.0048321831593612
0.812372232910391
0.7910866502221442
0.85139300946248
0.8372513991297105
0.863922852111513
0.8743611960674241
0.4596086290879403
1.0427151150094083
1.0827763644852633
1.2668402811701547
1.3050653285285052
1.0597181620869751
0.8908213919051504
0.7968807640886107
0.9584475421181355
1.025978352085154
0.9927439225285928
1.120217439361465
1.2747909848515049
1.2701737431817488
1.3195043535681554
0.9693747085046817
1.0314388656647009
1.186008868466681
1.034568755787906
0.9710454474291013
1.1451905805522216
1.1215878699606918
0.9344412938037503
1.119903507924187
0.8839406802566884
0.9130096959105239
0.9595930899102114
1.042614913129885
1.2129209497718698
1.0067153450903397
1.1422770198488772
1.2598813800746502
1.058985535712313
0.9028986347487199
0.7918033326954688
0.7674580358991183
0.5032216016472119
0.1756589201793804
0.09566884076259731
0.08165969950046827
0.0824106482585231
0.0873214918429129
0.09108317107560794
0.09855674414040794
0.14855234160262776
0.17272840579874688
0.17063580656238214
0.1519909240375239
0.16231663889456135
0.2622782159684442
0.3850459374388179
0.3384468531118152
0.21560224130952418
0.15803971289171362
0.20384108785527907
0.26969385428091786
0.2979626740525109
0.253801676777109
0.30963588417129634
0.31629007931413905
0.2700180202185363
0.3064892943367778
0.3016743387813141
0.33229707866811187
0.28645232522188646
0.28227241277012727
0.26333735809021463
0.3155247764386109
0.34589499937319695
0.44747572351923715
0.34439048291915303
0.23065706481059448
0.19593558290815255
0.20323422986633805
0.1725997355281198
0.113884413552766
0.12761527534740014
0.1671862613990444
0.14531655000019444
0.15265439737898526
0.16128211852867053
0.12328135844729243
0.1388465308680148
0.15345365172909878
0.18149630620346033
0.21614706305219847
0.35483711808766066
0.43503751318234996
0.4538890507444238
0.375541983159266
0.2192559218258109
0.21174720368943536
0.16057477201645484
0.11190777916817332
0.08001319551497915
0.09820799407338811
0.11186410751536961
0.13383646141837607
0.09206718569729529
0.10167229009027628
0.1097846995838664
0.1716705676962794
0.1831792491478888
0.17507849054202498
0.2081126512289559
0.24930881140428815
0.2586140226969506
0.27967760212722775
0.19907900485072252
0.20125911355751533
0.1985464395116396
0.19569116559460867
0.202440489500208
0.14178222967182902
0.1419854739221248
0.18400494947525822
0.19647338201806713
0.19757075902957102
0.30324173845080304
0.38122757987051326
0.469027470859778
0.5933595374687102
0.4639380644626623
0.6827587448385875
0.7400965514125171
0.9843291426774485
0.936624138081871
0.6757471985855413
0.6034081687198297
0.5674155918439188
0.6604033442689624
0.8339807443155532
0.821565490102019
0.8725939529672903
0.6503097010236228
0.6561442596727209
0.7648202235658755
0.8785544079816967
0.9402598447345006
0.7689844205218923
0.4174306419751016
0.46469682393832207
0.7280955770791765
0.7094954324684299
0.7396596922652705
0.5273643810042923
0.5530692735388172
0.5670907551564401
0.6278334824619726
0.47030023083887085
0.5031213420924702
0.44934390367395743
0.43941117843710964
0.3658582172248271
0.39331419292894615
0.38248707596820786
0.6679718689264671
0.5930906932483087
0.6286449555496404
0.4895989220262744
0.4894144278400686
0.8274111758566812
0.8860680849218578
0.8434327447474853
0.689965863429779
0.6103473232149254
0.6551386034156594
0.8339807443155532
0.7772606033718181
0.8008319614979589
0.5995361915821013
0.9099108120870242
0.9822818858112949
1.042968286293499
1.3236461818739438
1.283254179948408
0.8790543463864947
0.9676879302815615
1.0239531801135902
1.7048192806712876
1.7473925664662042
1.3536504718976312
1.1976020843451456
0.9957735568847571
1.1382483948345852
1.1885718693799174
0.875690900619299
0.9064852417682898
0.7768480231032127
0.717673447776049
0.43284206195162483
0.396516142283676
0.3860199498016103
0.47239992121651186
0.535738308916504
0.4624326494336789
0.3760106740231841
0.35600870632746345
0.37191699720504867
0.43196987261233766
0.4052222088600881
0.4265617325364135
0.38161358991127914
0.38090191825153646
0.3794180734705556
0.3375744101565555
0.49425969899948347
0.5972402515849113
0.6982916681519316
0.599123559132078
0.5851554588374449
0.7603776036514416
0.535886258410024
0.5407973502969652
0.6229938606274025
0.4773029689784572
0.4158426084046386
0.5067889950187732
0.4056355887954503
0.5795641774638479
0.7114742856621264
0.7075756427800317
0.6389881227790178
0.9101099458152858
1.0022412653461794
1.0917576783170517
1.0509676237120809
0.929672046821181
0.6779317046480632
0.7175889745552577
0.9967056693185744
1.0869890913153144
1.078693452867409
1.0038602189887034
1.0581178006419432
1.3536504718976299
1.3045587883322862
1.497020102402456
1.473355995428276
0.8872682023762901
1.0605393032924606
1.0455323943621384
0.9870131382713906
0.9509371746203694
1.1221178963759881
0.8767352863854774
1.0719342086469765
1.2133879493355373
1.265165037477406
1.2207900968964522
1.327635004586016
1.1508341619204552
1.119910963806993
1.1370426921286083
0.9326220144253712
1.2392332523890668
0.774199889984699
0.831526785528581
0.8944109592448596
0.977879560381642
0.9108844533304902
1.0148496078861058
1.0084789648916952
0.9085613195690789
1.0076833530369123
1.0394491036619369
1.3493201972373905
1.4454516858823743
1.475582673529296
1.428965793731151
1.0227410575005091
1.1037985455644308
1.1719352361284263
1.181536171432845
0.892016535512705
0.5256004425583756
0.7166761114846597
0.8347938137427282
0.8830747525081589
0.7606414650648664
0.7606414650648664
0.6684248360260725
0.4855559946572886
0.7238810806950814
0.8711999077536248
0.9434816667794949
0.9906578103880849
0.8517960380501796
0.7850590413533678
0.8295363246848891
0.9279142962721185
1.035094491458462
0.9290916218863894
0.9748840726991375
0.9233953961182495
0.9738650377164135
1.0693289041738472
0.6494606696132799
1.0602690493987645
1.1842985414792424
1.1975158447512615
0.8001776137614293
0.8368052358193039
1.0517895456939512
0.8687990607849585
0.9172128188801171
0.7898102557667737
0.9268776355066652
1.0065894240740394
0.5842164015264475
0.6356442700282133
0.7204649903616782
0.8309533140621933
1.1335002337022293
0.6671130543045501
0.5938062560191425
1.1860088684666812
1.3104744073238614
1.0048995168746602
0.9426834017480016
1.0524814051690692
0.7004977791834024
0.2962722382464692
0.16941402477919212
0.11166418305113346
0.117998624344756
0.13233527770385978
0.13984226387612958
0.1476614058447872
0.16763358406766046
0.17803155457088843
0.14769143248485714
0.15817948315044245
0.12857374960331597
0.13782209414397173
0.21746609072290343
0.3259775228931407
0.20520370385903555
0.22797575963683275
0.22226153570878124
0.16289672075288136
0.17446633370430492
0.16745209431354283
0.1272992576185748
0.21620012966707808
0.1961727620516612
0.22465013290279345
0.23861939955145256
0.22838385440325704
0.21659808821731813
0.2497622416775529
0.28024831167744163
0.19663411494027835
0.13488760503395425
0.13629697877823252
0.17208583838375693
0.20587595423042493
0.22860622114030946
0.33315607588109414
0.31536906081165283
0.2926290394972137
0.23959616786051455
0.23754593551641007
0.2131097505174356
0.17562637590547855
0.16441387220188627
0.14531655000019444
0.15265439737898526
0.16128211852867053
0.17088820856442963
0.1388465308680148
0.1549907787036229
0.20097986751168898
0.22180036468277922
0.2767089215275571
0.34600902226289737
0.4572965495133389
0.4272082946403114
0.3372645957961503
0.13282561436481644
0.12767356341277758
0.10248313244636126
0.12241129086679904
0.10899949638099012
0.12291294893280535
0.15051039320031354
0.12229968633302492
0.13283127715864101
0.1281745279589792
0.12495884704840067
0.12598049067627712
0.15153861478835792
0.19063918163201357
0.20740830652771966
0.2167770532434418
0.18429629482126553
0.22686760248461477
0.16714612184359146
0.21773413031772887
0.19563885295281946
0.16531460413637625
0.20580023704988687
0.21449307084062266
0.22082334037743007
0.2196057740687761
0.22693315905760952
0.20167792682325358
0.2715525466244523
0.3138545576740702
0.43740761170708276
0.45626251774874677
0.5699438027399482
0.7432475761602135
0.8953498530482846
0.9281234614359021
0.9093184234594143
0.7505291550101635
0.8585372956072843
0.5408883867519877
0.7023139394250555
0.8592226174146768
0.6220195891629178
0.5330230432385569
0.5559766838069727
0.622330680401561
0.8526148573830722
0.7645600225125114
0.6621812673060348
0.5957615111402483
0.6443429506110389
0.7480168578687996
0.7348893617724722
0.6887004431501805
0.5792073922623411
0.414956617083698
0.5325364593796195
0.5202952960530512
0.5548286718796924
0.8994869448160243
1.1171929059440848
0.8229254894177366
0.6000369184427267
0.6442456732049954
0.9313684485030781
0.975666884224908
0.6547434064569583
0.4174306419751016
0.46469682393832207
0.7021701319867232
0.7543579620414795
0.7331619166063701
0.6621812673060348
0.44273477788592425
0.5186730751837451
0.531374921418354
0.4390484339797034
0.6417333595366782
0.5792073922623411
0.414956617083698
0.45667574846671094
0.5238195953119616
0.7159190119986404
0.6247359683979119
0.6353078202060072
0.5850989209644286
0.49755481210098307
0.515515107660663
0.7069850811072991
0.7152370370970366
0.5435168818064123
0.5135819657850826
0.6366254270225845
0.7462819797684439
0.7462819797684439
0.9320953437417184
0.8347938137427282
0.8991437235916878
1.0015752637778548
0.9025434707148783
0.7656296140931612
0.8448595489173428
0.7701151427308065
1.0036628207424454
0.904982024462816
0.9330112789280848
0.8386160441770213
0.6039550123289527
0.5467731644828219
0.6573583849858682
0.5407973502969652
0.6229938606274025
0.46863684970762653
0.5369570948151007
0.5058981619155366
0.7118890588811133
0.7694946462068981
0.716031038748654
0.770896120549894
0.6382803619957756
0.7341930153259206
0.7087342795176959
0.31822393605189353
0.4061162057147588
0.3437118250790422
0.3038064850110745
0.3309609414647332
0.4250721333051251
0.37238292388083394
0.47340658968168653
0.35742782384620714
0.40185844960663347
0.4920225516120733
0.4056355887954503
0.4648937286735463
0.5159603360516738
0.5008235462286169
0.48731742232820024
0.6818305688665333
0.9253344009757696
0.9903976246340571
0.9439199659697257
0.8206594902940897
0.5515344292999262
0.6409610045003296
0.9712020636888082
0.7707002137637619
0.7869852787423285
1.5656559442362952
1.4977671160511983
1.4065377848947875
1.0785975791271352
1.2918152586552873
2.117167081529193
1.6869606144939342
1.4059049495734899
1.0876804396832223
1.1001912213548397
0.9465709567528369
0.9513421394534981
0.7167435523623498
0.9410630053670735
0.8999867883602768
1.1985922184624338
1.1495945304720427
0.9122631500516242
0.749094848274316
0.7331619166063705
0.7452558904370106
0.8474244384994228
0.9020970140452228
0.5523761029523316
0.5021035392755052
0.5522423273669327
0.6204753812416136
0.9422630002033726
0.7985340699285863
0.9456359907967773
0.6194062989683021
0.8421045781399219
0.7475090494269783
0.7475090494269782
1.174238544628255
1.1022254165759142
0.9758869163211402
1.0196033239464155
0.8626599906897977
0.7708354902139285
0.5551811846453683
0.7526430990070799
0.7460012458837052
0.7857456178334569
0.7666804188307091
0.7969211184069066
0.8990148321033222
1.2185656347259484
0.9813130016897115
0.9689693830559691
1.1478472258040426
1.0516621563801476
0.7516933982505549
0.958008530391823
0.8549341219474847
0.6675036112770637
0.4156938282279826
0.37847673659558556
1.3572856696131306
1.3264007811779768
0.9995607963354594
0.9893192978062365
1.7387532227699165
1.5560832313513453
1.4479485030493178
1.214163780490001
1.4979205874785502
1.2187917847643457
1.1300394746311284
1.044403900302165
0.8857886561644064
0.7918033326954688
0.7949811392416237
0.5391201036318193
0.5622013986290526
0.4109332611492817
0.2386195348107629
0.33483814705948933
0.23202611388280983
0.2156320752392986
0.3815200692354609
0.3098688794183558
0.3666582520808344
0.4495670937251801
0.5832667541723443
0.7791684646464896
0.4778719721583767
0.3045476306578389
0.6703858994871001
1.1454662092136274
0.684773198615713
0.6356069817327964
0.5582204780487299
0.6932826141684999
0.692862454385852
0.3757490378813602
0.3207215920500274
0.7526109026643306
1.1155684016249192
0.3710298348008852
0.13650233695887054
0.1640561223929263
0.18478386068754057
0.16312289692047557
0.17356510419609722
0.19234088870474245
0.26343162049995056
0.409371656095107
0.5083315740394838
0.8067042726307737
0.6798870693480529
0.7986893600160984
0.5081549586578371
0.9888983396872607
0.7356092237563353
0.4864318725366141
1.0416355569144575
1.0353287899158012
0.878801534267347
1.023416248933072
0.8902423134651227
0.831725140605257
0.7813280077631263
0.6043988259786621
0.6659680453820448
0.8011937394025289
0.6304506638752322
0.597538155702054
0.620726338063927
0.7608302502867264
0.9196906247704993
1.0598209866947514
0.8595346423496423
0.7524826034473826
0.7441269237648902
0.7581474696563113
0.7229527559851314
0.8197412347743602
0.5728458725356386
0.6779317046480632
0.7175889745552577
0.7671883619265613
0.7987871238481464
0.7812398872595334
0.6864166037575677
0.7435736056441355
0.9516779302250844
0.7724992273619418
1.1476248233428155
0.9531489332240278
0.6925428045556169
0.722787639208965
0.7257309825757924
0.6043988259786621
0.6225081726563695
0.4870235015391618
0.7165957323504425
0.7873090153595642
1.0692299027332124
1.3147239070785206
0.6674025418980305
0.8339022166013337
0.7774275493859829
0.7961659159416287
0.7475684549906606
0.9744623932077986
0.9721443414708261
0.9790013192049098
1.102378352334006
0.8942072244942109
1.1369373288808124
1.1120431871658802
1.062672482142363
1.0545754544254327
0.817703585583517
0.7344072058991349
1.285799915977913
0.8229254894177366
0.6000369184427267
0.6442456732049954
0.8886301359025387
0.6095177895965393
0.7097576260467702
0.716594080523207
0.620285001128367
0.6203511310587912
0.6034742539339769
0.7474967261531624
0.7300493216409638
0.5542891318065414
0.4892318606372513
0.5645755050977111
0.5744801113807494
0.4611924648380618
0.5911012748343019
0.48629374444860013
0.34539641892318274
0.4498668818725625
0.5844244000272114
0.5765758591063477
0.4753651629493573
0.4872759721670015
0.42166065329158814
0.4675316012061525
0.4302928101532422
0.7152370370970366
0.8273526653587265
0.7588690791674674
1.0162920716544628
1.0963379943509803
1.055225229755989
0.7107691938012127
1.1809883047023177
