0.9890453681207931,3.522530478718086,1.198634794701176,5.338624322392506,1.0066138210670317
0.9890453681207931,3.6085964011735245,1.0971461833379879,5.475166007471755,1.0066138210670317
0.9890453681207931,3.6458322875753115,0.9159725868430397,5.462111450902385,1.0066138210670317
0.9890453681207931,3.5430472289723576,0.8384853594450317,5.276282765678951,1.0066138210670317
1.0753251856454145,3.4607449305267846,0.8384853594450317,4.6542312107037525,1.0259999884982047
1.3005163307237968,3.4265270235083127,0.8384853594450317,4.238559643148661,1.3232790379039159
1.3233004414547032,3.257910452913361,0.8384853594450317,3.063162535391479,1.3232790379039159
1.3523336520692097,3.067510857507668,0.8384853594450317,1.996158073113149,1.360644178745445
1.2150999552402522,2.897884345115174,0.8384853594450317,1.3084482895036464,1.367380171390563
1.2150999552402522,2.897884345115174,0.8384853594450317,1.3084482895036464,1.367380171390563
1.21995197356016,2.897884345115174,0.8384853594450317,1.3084482895036464,1.529515623606587
1.2150999552402522,2.897884345115174,1.007523146045516,1.2070745229849138,1.8222446245856168
1.0620358916780777,2.875935821500024,1.9223380252570292,0.8884566049423858,2.795437652373547
0.8903519601900541,2.7196788845279394,2.7553350069233615,0.8038463739989132,3.64128578803656
0.8903519601900541,2.6960335472926666,3.7020967016037356,0.8038463739989132,4.292008364153998
0.8433732229131626,2.820878486395332,4.7152698322526065,0.8038463739989132,5.0949793159217345
0.7932853617860699,2.8968126946087476,5.270504399938982,0.8038463739989132,5.563643586947018
0.7574306291546843,2.8968126946087476,5.3260570873506365,0.8038463739989132,5.680511969369937
0.7276500274504264,2.8968126946087476,5.3260570873506365,0.8038463739989132,5.710747750525434
0.7025164966931149,2.8968126946087476,5.3260570873506365,0.8038463739989132,5.737538516233877
0.4627108032620632,2.8968126946087476,5.3260570873506365,0.8038463739989132,5.767103351734138
0.4353810812986644,2.8968126946087476,5.3260570873506365,0.8038463739989132,5.878206348049366
0.4353810812986644,2.8968126946087476,5.3260570873506365,0.8337990081006496,5.878206348049366
0.4353810812986644,2.9097668562450663,5.3260570873506365,0.8337990081006496,5.8840444279403625
0.4353810812986644,3.103536056690727,5.327111380770871,0.8337990081006496,5.8840444279403625
0.4353810812986644,3.103536056690727,5.33449598169992,0.8619725766902271,5.9058940423107895
0.4353810812986644,2.918563069109369,5.346078127842556,0.7087975879813727,5.879159398859531
0.4353810812986644,2.917107266748793,5.346078127842556,0.6428354537718638,5.859070208122085
0.45370491220955156,2.917107266748793,5.346078127842556,0.6428354537718638,5.859070208122085
0.479606463043037,2.917107266748793,5.346078127842556,0.6428354537718638,5.859070208122085
0.5512999913578601,2.9143110604761735,5.363083425674095,0.6428354537718638,5.859070208122085
0.5784416294920111,2.785757158847541,5.322501155104714,0.6428354537718638,5.848481600674043
0.6272441469876271,2.785757158847541,5.23841865069952,0.6428354537718638,5.792133386255554
0.6771721459888241,2.785757158847541,5.204081953953085,0.6428354537718638,5.792133386255554
0.6771721459888241,2.785757158847541,5.204081953953085,0.6428354537718638,5.792133386255554
0.6771721459888241,2.785757158847541,5.204081953953085,0.625730747995355,5.792133386255554
0.6771721459888241,2.785757158847541,5.23841865069952,0.6095458005904414,5.792133386255554
0.6771721459888241,2.785757158847541,5.186187556364789,0.6428354537718638,5.830436291284043
0.6771721459888241,2.767258549372386,5.186187556364789,0.6892863197179546,5.792133386255554
0.6771721459888241,2.767258549372386,5.186187556364789,0.6892863197179546,5.790759900939316
0.7389272416150945,2.767258549372386,5.113112882358359,0.6892863197179546,5.790759900939316
0.7389272416150945,2.767258549372386,4.988625625611042,0.6892863197179546,5.790759900939316
0.7389272416150945,2.767258549372386,4.988625625611042,0.7259459607781803,5.790759900939316
0.6946598601317546,2.767258549372386,4.988625625611042,0.7259459607781803,5.830436291284043
0.580069249238278,2.767258549372386,4.988625625611042,0.7259459607781803,5.830436291284043
0.33640156017328815,2.767258549372386,4.988625625611042,0.8423123509345831,5.830436291284043
0.33640156017328815,2.767258549372386,4.988625625611042,0.8423123509345831,5.830436291284043
0.33640156017328815,2.8225907369533925,4.988625625611042,0.8644858847049051,5.849274616515836
0.33640156017328815,3.070117317354874,5.1108996283013255,0.8644858847049051,5.8718161910741635
0.33640156017328815,3.111703142525805,5.222692413405813,0.8354704954081559,5.904398108754393
0.33640156017328815,3.111703142525805,5.2299288364856,0.8354704954081559,5.931399636853061
0.32196555332291754,3.111703142525805,5.2299288364856,0.8354704954081559,5.936795091090232
0.32196555332291754,3.111703142525805,5.309780594549707,0.8354704954081559,5.936795091090232
0.32196555332291754,3.1100392515038298,5.354542013435001,0.8261424502230643,5.936795091090232
0.32619255220782006,3.070117317354874,5.354542013435001,0.8261424502230643,5.931399636853061
0.3474929864031623,3.01142130049437,5.354542013435001,0.8261424502230643,5.900570986269783
0.3528271678087555,3.01142130049437,5.354542013435001,0.8261424502230643,5.837993866540007
0.41203316497968967,2.939931165950627,5.212185525420703,0.8263987120164652,5.287325920551786
0.41203316497968967,2.9027998254116043,4.577919675799288,0.8263987120164652,4.025265321974675
0.41203316497968967,2.9027998254116043,3.4096789864516928,0.8281471973016218,3.090497141641644
0.3474929864031623,2.967423288773325,2.3652649507533923,0.8663656521153342,2.319308815392217
0.3444480490310462,2.967423288773325,1.6274969697157193,0.8663656521153342,1.8923700312664955
0.3444480490310462,2.967423288773325,1.228522863634667,0.8663656521153342,1.5737984063056916
0.3444480490310462,2.967423288773325,0.8632426214329715,0.8663656521153342,1.4572704436993955
0.3444480490310462,2.967423288773325,0.7642391888354957,0.9700898342330522,1.401309308381296
0.3444480490310462,3.2014917946101247,0.6290502628308716,1.3094512951787873,1.401309308381296
0.3444480490310462,3.5125777674734273,0.5682294162534862,1.868667196490762,1.401309308381296
0.3444480490310462,3.572822861617839,0.5437804138070875,3.310157231813992,1.401309308381296
0.3444480490310462,4.086829623746552,0.5300376413495315,4.610634485467661,1.401309308381296
0.3444480490310462,4.091468806123265,0.45399917876017776,5.361001344492127,1.401309308381296
0.3444480490310462,4.118826862563355,0.42071438780903503,5.857352770592352,1.401309308381296
0.4497723801894675,4.168074704006299,0.4131496179305252,5.993017273124744,1.401309308381296
0.5381205314207084,4.168074704006299,0.3749145097078747,6.0153247447610845,1.4172413486521631
0.7955353121329324,4.168074704006299,0.32474977879283723,6.028227960324793,1.4172413486521631
0.8978696111006579,4.168074704006299,0.32474977879283723,6.028227960324793,1.4321192143458186
0.9559757903288159,4.156246109796019,0.32474977879283723,6.0153247447610845,1.4272747471795821
1.0313396292840467,4.105858698450978,0.32474977879283723,5.989761194873362,1.471680298103783
1.1047553231574982,4.019356359470941,0.32474977879283723,5.978351245661048,1.2994037214496625
1.1047553231574982,4.019356359470941,0.3749145097078747,5.978351245661048,1.1172421125465224
1.0313396292840467,4.019356359470941,0.38482451289369757,5.978351245661048,1.1172421125465224
1.0313396292840467,4.019356359470941,0.38482451289369757,5.973933561274295,1.1172421125465224
1.0313396292840467,3.9750610975448386,0.38482451289369757,5.955924114790027,1.1172421125465224
0.7956959388912448,3.9750610975448386,0.4774270640276795,5.955924114790027,1.1172421125465224
0.6195304859543794,3.9750610975448386,0.4774270640276795,5.955924114790027,1.1172421125465224
0.6098025740223904,3.9750610975448386,0.48280480319427704,5.955924114790027,1.1172421125465224
0.6098025740223904,3.9750610975448386,0.48280480319427704,5.955924114790027,1.1172421125465224
0.6098025740223904,4.05012409493947,0.49288180944787796,5.963287610915543,1.1172421125465224
0.6098025740223904,4.05012409493947,0.4213923418623218,5.973933561274295,1.2272503737965312
0.6098025740223904,4.11436272935056,0.4213923418623218,6.008561134373678,1.2387838347131759
0.6098025740223904,4.1731285027090825,0.4213923418623218,5.978379089018203,1.2689135172767654
0.7208290515741691,4.1731285027090825,0.4213923418623218,5.978379089018203,1.2943866887820532
0.9595337231819735,4.05012409493947,0.4213923418623218,5.8449187348755824,1.2943866887820532
1.1775419312433038,4.011919333687853,0.4213923418623218,5.65285086243948,1.3275012473728436
1.3749587419647833,3.8521701349720097,0.4213923418623218,5.48415838399459,1.3275012473728436
1.5089567952947682,3.0335835473961965,0.4213923418623218,5.37015746513165,1.4402271625855645
1.6657094414738627,3.0335835473961965,0.4213923418623218,5.222216452113295,1.4575613738349733
1.8943726490538284,3.0335835473961965,0.6563143384014849,5.1186503016582385,1.4575613738349733
1.9052261867871743,3.0335835473961965,0.7889960124729576,5.068861849670507,1.4575613738349733
2.0029408222777416,3.0335835473961965,0.9064415368335851,5.068861849670507,1.4575613738349733
2.1453298342691642,3.0335835473961965,1.0443050242262046,5.0352755866786385,1.4575613738349733
2.444647907682402,2.733650306252511,1.2362442392580573,5.0226456659258245,1.3916806473491368
2.4473611721480593,2.6224042384507813,1.6045193672206495,5.0226456659258245,1.3499888118405643
2.444647907682402,2.6224042384507813,1.8594552206203476,5.0226456659258245,1.3499888118405643
2.444647907682402,2.6224042384507813,1.8663026725478253,5.0226456659258245,1.3352493379250672
2.444647907682402,2.733650306252511,1.8594552206203476,5.0352755866786385,1.3352493379250672
2.444647907682402,2.8274086741746287,1.857060860783814,5.068861849670507,1.3175932914672734
2.4473611721480593,2.7938797342621777,1.857060860783814,5.0352755866786385,1.2972638324276893
2.5504135375425365,2.6224042384507813,1.857060860783814,5.075755442341913,1.2787564674292746
2.4473611721480593,2.6224042384507813,1.8594552206203476,5.077166686935264,1.2787564674292746
2.4473611721480593,2.6224042384507813,1.8594552206203476,5.0352755866786385,1.2787564674292746
2.1178132409161616,2.6224042384507813,1.8663026725478253,5.075755442341913,1.2787564674292746
2.089149448274065,2.8274086741746287,1.8359864757711097,5.075755442341913,1.2297132923790324
2.0482551451681625,2.8274086741746287,1.6502545408962386,5.075755442341913,1.1698880130699079
2.089149448274065,2.8274086741746287,1.389806410912647,5.075755442341913,1.1498611905296838
2.00897012683342,2.8274086741746287,1.2826374692815494,5.075755442341913,1.1498611905296838
2.00897012683342,2.8274086741746287,1.2826374692815494,5.1558945716408076,1.1498611905296838
1.8670275331644604,3.368831299000048,1.2826374692815494,5.1558945716408076,1.1498611905296838
1.8670275331644604,3.368831299000048,1.2826374692815494,5.1784062235262756,1.1498611905296838
1.8464537762338094,3.428828723947717,1.2826374692815494,5.250330781184697,1.0639571306151334
1.7889112373876839,3.4439225716172577,1.2322278264535818,5.378909005053447,1.0312859970362764
1.7015385811317676,3.5532236296126056,1.2322278264535818,5.539525432959217,1.0087166248832162
1.7015385811317676,3.5532236296126056,1.2322278264535818,5.591123484319125,1.0087166248832162
1.7702663631540994,3.5532236296126056,1.2322278264535818,5.591123484319125,1.0087166248832162
1.7706672983104907,3.5532236296126056,1.2322278264535818,5.591123484319125,1.0087166248832162
1.8464537762338094,3.4653622711991328,1.2322278264535818,5.581383334771679,1.0087166248832162
1.8464537762338094,3.2833520568515553,1.2322278264535818,5.581383334771679,1.0087166248832162
1.6950421303167662,3.2833520568515553,1.2322278264535818,5.581383334771679,1.0087166248832162
1.6950421303167662,3.2833520568515553,1.2322278264535818,5.581383334771679,1.0087166248832162
1.6950421303167662,3.4653622711991328,1.2322278264535818,5.591123484319125,1.0553070734154157
1.6950421303167662,3.4653622711991328,1.2322278264535818,5.591123484319125,1.0553070734154157
1.7930226651253243,3.3394450280788397,1.2474523786757004,5.581383334771679,1.0562309678834325
1.7930226651253243,3.3394450280788397,1.129060884804841,5.581383334771679,1.0562309678834325
1.773206957333666,3.3394450280788397,1.123885808617306,5.581383334771679,1.0562309678834325
1.773206957333666,3.3394450280788397,1.123885808617306,5.636378188897651,1.0562309678834325
1.7215597885330256,3.4653622711991328,1.123885808617306,5.648921542972929,1.0562309678834325
1.7215597885330256,3.512471668209922,1.109536011926229,5.648921542972929,0.870388279779508
1.7245182409046536,3.512471668209922,1.0835118530059868,5.636378188897651,0.831840576610708
1.737498746796813,3.4949309861527467,1.0835118530059868,5.636378188897651,0.7856646234930332
1.7245182409046536,3.4949309861527467,1.0835118530059868,5.636378188897651,0.7856646234930332
1.7245182409046536,3.4949309861527467,1.0835118530059868,5.585395429679242,0.7856646234930332
1.7245182409046536,3.512471668209922,1.0835118530059868,5.619602480875003,0.7856646234930332
1.7245182409046536,3.512471668209922,1.0835118530059868,5.619602480875003,0.7856646234930332
1.737498746796813,3.4949309861527467,1.109536011926229,5.585395429679242,0.889633545797529
1.7287772571260909,3.4760040925807143,1.0623804860473225,5.585395429679242,0.7909148181401452
1.7287772571260909,3.4760040925807143,1.0623804860473225,5.585395429679242,0.7909148181401452
1.737498746796813,3.4760040925807143,1.0623804860473225,5.533877965003924,0.7909148181401452
1.737498746796813,3.4534975479833605,1.0623804860473225,5.532327430241142,0.889633545797529
1.7518689502041689,3.4499969723464257,1.1011416918840684,5.466924478097946,0.9612570774918692
1.7974856275325815,3.3572828304672124,1.1011416918840684,5.461784851366293,0.9764710143630242
1.8479185536965743,3.1560793145923873,1.1011416918840684,5.112784623482572,0.9834556712177668
1.8479185536965743,3.0332814593931463,1.1011416918840684,4.568334977589771,0.9834556712177668
1.9128986707867903,2.5116044579170613,1.1011416918840684,3.5616635061527337,1.0271929351192637
2.234197936784054,2.4586126411867175,1.1692402379513247,2.978935501380707,1.0587424884627772
2.3278967001677455,2.400300798081972,1.179799417472483,2.895696843700209,1.2505730069141443
2.630847421008776,2.400300798081972,1.721088793720993,2.8045573869986433,1.3502111171285276
2.4899867770013473,2.400300798081972,1.7685416226052026,2.3800018836370946,1.4569064663335376
2.568540578347646,2.400300798081972,1.9104975077035249,1.8150278647212987,1.7062605999278884
2.3743062056019406,2.2256113529709416,2.115900400316427,1.5165614527903637,2.01710820675747
1.9901214069144708,2.2256113529709416,2.5590605025871414,1.287999446903959,2.7709183075947386
1.9901214069144708,2.2256113529709416,3.4275697227065516,1.2708911584597113,3.3678283980669326
1.9901214069144708,2.2256113529709416,3.8545966275703556,1.2708911584597113,4.208389807499408
1.9243426058199067,2.2256113529709416,4.272248941195721,1.2708911584597113,4.623315665791308
1.8505513715779027,2.242807445861268,4.536151359174306,1.1661491285142918,4.66358845034826
1.7496013777134405,2.242807445861268,4.806699139379082,1.0398002995651972,5.070249602992573
1.5990237503609468,2.242807445861268,4.823463606410308,1.0098878962486126,5.167934687126531
1.5292613544868467,2.242807445861268,4.823463606410308,0.7421396646556752,5.238531068442099
1.5292613544868467,2.242807445861268,4.823463606410308,0.7421396646556752,5.3534076268651365
1.5292613544868467,2.242807445861268,4.823463606410308,0.7421396646556752,5.3534076268651365
1.5292613544868467,2.3074504462624463,4.823463606410308,0.7421396646556752,5.3534076268651365
1.5292613544868467,2.3074504462624463,5.1093159815204565,0.7421396646556752,5.3534076268651365
1.5292613544868467,2.3534859923714504,4.993786599645538,0.7421396646556752,5.423852786451071
1.5292613544868467,2.3534859923714504,4.993786599645538,0.7421396646556752,5.43029021123665
1.4468041304323294,2.3534859923714504,4.811768542271324,0.7421396646556752,5.43029021123665
1.3682512175558832,2.3998311309602527,4.811768542271324,0.7421396646556752,5.4541311406430175
1.3682512175558832,2.4121673159333907,4.993786599645538,0.7941812308110082,5.467839819306513
1.3101706967603024,2.4121673159333907,5.070458980565124,0.7708908119987096,5.467839819306513
0.9232170569115965,2.4121673159333907,5.070458980565124,0.7708908119987096,5.467839819306513
0.9232170569115965,2.4121673159333907,5.014559362328838,0.7537469588285349,5.487541527487503
0.9232170569115965,2.4121673159333907,5.014559362328838,0.7022134328938172,5.520748639934228
0.9232170569115965,2.5716161170441594,5.014559362328838,0.6105580753766494,5.565764128877076
0.9232170569115965,2.5716161170441594,5.014559362328838,0.5937973330902903,5.565764128877076
0.9232170569115965,2.5716161170441594,5.13020097013336,0.5772760534619293,5.6343079019926545
0.9232170569115965,2.463970418866257,5.091268966616717,0.5772760534619293,5.645171187301439
0.9232170569115965,2.463970418866257,5.091268966616717,0.5772760534619293,5.645171187301439
0.9584381542587085,2.463970418866257,5.070458980565124,0.5772760534619293,5.645171187301439
0.9698186667763683,2.463970418866257,5.070458980565124,0.5772760534619293,5.645171187301439
0.9698186667763683,2.463970418866257,5.091268966616717,0.5937973330902903,5.645171187301439
0.9967027747920582,2.463970418866257,5.261841122025812,0.5937973330902903,5.645171187301439
1.0474214439029483,2.4510691776857074,5.261841122025812,0.5937973330902903,5.6343079019926545
1.043245520928686,2.4510691776857074,5.091268966616717,0.5937973330902903,5.6343079019926545
1.043245520928686,2.4510691776857074,5.04654595408876,0.6075433684699032,5.6343079019926545
1.043245520928686,2.5028402199564925,5.04654595408876,0.7025903271812114,5.64605612094675
1.043245520928686,2.656801060377463,5.04654595408876,0.7025903271812114,5.651989844573777
1.043245520928686,2.6514453760395287,5.266827603212777,0.6183216922686754,5.64605612094675
1.043245520928686,2.4056779234848897,5.307061473857654,0.6183216922686754,5.614453911271455
1.043245520928686,2.4056779234848897,5.307061473857654,0.6183216922686754,5.425500857918392
1.086454820425513,2.4056779234848897,5.223474117170023,0.6183216922686754,5.175119388207888
1.2554788053655286,2.3485159107589797,5.223474117170023,0.6183216922686754,5.125866736847876
1.2554788053655286,2.342637899886705,5.223474117170023,0.7025903271812114,5.068684721538336
1.3173526585113566,2.318120451873125,5.04654595408876,0.7263956091890221,5.068456951693382
1.3822666764337093,2.318120451873125,5.04654595408876,0.7399025202963163,4.892617048445487
1.4321594589269537,2.318120451873125,5.0387133144158,0.7546585647527635,4.775415321546106
1.6092033854394587,2.318120451873125,4.778912337532862,0.9510628960145546,4.624329154933997
1.990548805962812,2.318120451873125,4.778912337532862,1.311512193407245,4.624329154933997
2.009816140795231,2.342637899886705,4.778912337532862,1.4447155309920607,4.624329154933997
2.112297951901015,2.3459015833454395,4.754788953022907,1.5036944067158509,4.624329154933997
2.4487622215353895,2.3459015833454395,4.754788953022907,1.6294476188889695,4.624329154933997
2.4932741428151535,2.3459015833454395,4.416324310267169,1.6294476188889695,4.2872595932290585
2.67090348948114,2.3459015833454395,4.253767095051116,1.6294476188889695,4.033762147550306
2.8348020394777635,2.4090531561500805,4.253767095051116,2.2360665660864107,4.033762147550306
2.838462591209634,2.4431096577104747,4.217901825249385,2.4421663468343997,4.033762147550306
2.838462591209634,2.4431096577104747,4.1908237203380585,2.4421663468343997,4.033762147550306
2.838462591209634,2.436290576672028,4.1908237203380585,2.4421663468343997,4.033762147550306
2.838462591209634,2.436290576672028,4.1908237203380585,2.424301175377652,4.033762147550306
2.9478077914752734,2.163508575857676,4.1908237203380585,2.4421663468343997,4.033762147550306
3.0156609379590367,2.1406522536912043,4.1908237203380585,2.4421663468343997,4.033762147550306
3.0156609379590367,1.9837413742793855,4.1908237203380585,2.1783710798175777,4.033762147550306
3.0156609379590367,1.9837413742793855,4.1908237203380585,2.1783710798175777,4.033762147550306
3.0156609379590367,1.9837413742793855,4.1908237203380585,2.1783710798175777,4.107338132468812
3.0156609379590367,1.9837413742793855,4.049850865325708,2.1783710798175777,4.2719260293482355
3.0156609379590367,1.9837413742793855,4.049850865325708,2.1783710798175777,4.1474909063520435
2.9224657085178696,1.9837413742793855,4.257368322988435,2.1783710798175777,4.077977212421893
2.9224657085178696,2.0128513703543875,4.257368322988435,2.1783710798175777,4.077977212421893
2.9224657085178696,2.0128513703543875,4.257368322988435,2.1783710798175777,4.077977212421893
2.9224657085178696,2.0128513703543875,4.214198303858122,2.3577499900770595,3.894234483932095
2.9224657085178696,1.9837413742793855,4.073021096940888,2.3577499900770595,3.826995594672245
2.956218876125097,1.9947975322764289,3.7147677156740353,2.639542739941035,3.599718267266478
3.288191690637601,1.9947975322764289,3.5939885352975054,2.7745393343108695,3.214519044045267
3.288191690637601,2.016919189106106,3.5939885352975054,2.861058742305748,3.214519044045267
3.288191690637601,2.016919189106106,3.707954645390545,3.013101525740595,3.2044910981287447
3.288191690637601,2.016919189106106,3.5939885352975054,3.0917322262033764,3.1331097632784926
3.098157127738404,2.016919189106106,2.7833028715863817,3.0917322262033764,2.7428775592309624
3.3253808575640895,2.016919189106106,2.7833028715863817,3.0917322262033764,2.6632078967791095
3.3253808575640895,2.016919189106106,2.7833028715863817,3.3308799387122034,2.6632078967791095
3.3253808575640895,2.1695565540266197,2.7833028715863817,3.3308799387122034,2.6632078967791095
3.2436138794591205,2.0768692001525233,2.7833028715863817,3.1646461996273456,2.6632078967791095
3.193847900094699,2.14011977561368,2.7833028715863817,2.7305750127281754,2.6632078967791095
3.193847900094699,2.1847089696539985,2.7833028715863817,2.5997483416550877,2.6632078967791095
3.193847900094699,2.2064361000936423,2.7833028715863817,2.5997483416550877,2.6632078967791095
3.2436138794591205,2.14011977561368,2.7833028715863817,2.5997483416550877,2.6632078967791095
2.9736496903288923,1.821032687899461,2.7833028715863817,2.4669393309052703,2.6632078967791095
2.9736496903288923,1.7175597419530024,2.787449576944332,2.41482235945745,2.6632078967791095
2.904072407842248,1.7175597419530024,3.313711913800054,2.0783881182374313,3.303639478451889
2.904072407842248,1.7175597419530024,3.9472620362703745,2.0783881182374313,3.995130993789043
2.904072407842248,1.7175597419530024,4.173958651056228,2.0783881182374313,4.192535444872019
2.904072407842248,1.7175597419530024,4.173958651056228,2.0783881182374313,4.192535444872019
2.760804047538927,1.7175597419530024,4.292374219202166,1.9405299166798042,4.192535444872019
2.760804047538927,1.7175597419530024,4.306659374158339,1.892341863314605,4.192535444872019
2.760804047538927,1.7175597419530024,4.306659374158339,1.892341863314605,4.205231529980117
2.760804047538927,1.7175597419530024,4.306659374158339,1.892341863314605,4.3397427030205264
2.760804047538927,1.7638926825375274,4.306659374158339,1.892341863314605,4.274457437794288
2.6945088589929482,1.8111581126541554,4.306659374158339,1.9342874134161918,4.274457437794288
2.7926690709905366,1.8219067740115853,4.537366557864467,2.0783881182374313,4.274457437794288
2.7926690709905366,1.8219067740115853,4.2546522659487,2.204892086536792,4.192535444872019
2.7926690709905366,1.8111581126541554,4.2546522659487,2.204892086536792,4.173699290472601
2.7926690709905366,1.8111581126541554,4.227993664212876,2.204892086536792,4.108104765244874
2.7926690709905366,1.8111581126541554,4.227993664212876,2.210445108572599,4.108104765244874
2.812034574269722,1.906596898839083,4.227993664212876,2.211431871254006,4.108104765244874
2.6164617994092154,1.9093386360047737,4.227993664212876,2.211431871254006,4.108104765244874
2.5875608379789856,1.9093386360047737,4.2546522659487,2.1789223158351874,4.108104765244874
2.5150679640619042,1.9093386360047737,4.3014508234068005,1.8541062358269993,4.108104765244874
2.5150679640619042,2.0561049604061257,4.2546522659487,1.8541062358269993,4.148563574728786
2.5150679640619042,2.0561049604061257,4.2546522659487,1.8541062358269993,4.108104765244874
2.5046791906181562,2.0561049604061257,4.2546522659487,1.8541062358269993,4.107667650584026
2.5046791906181562,2.0790417234217915,4.3615097849625375,1.8541062358269993,4.071702383364866
2.5046791906181562,2.0593489514698198,4.3014508234068005,1.8541062358269993,4.071702383364866
2.5046791906181562,2.0593489514698198,4.3014508234068005,1.8541062358269993,4.012456228467849
2.5046791906181562,2.0593489514698198,4.148785447335926,1.8541062358269993,3.9787911000469554
2.5046791906181562,1.85881705935492,3.8449633792232425,1.8541062358269993,3.779109945268674
2.5150679640619042,1.85881705935492,3.8449633792232425,1.990832552672371,3.779109945268674
2.7302379215576074,1.8359218235530186,3.8449633792232425,2.4242103041122345,3.779109945268674
3.117220992497951,1.8170878783001347,3.8449633792232425,2.5053481104678417,3.779109945268674
3.1552740970848268,1.8170878783001347,3.8449633792232425,2.8319851007684966,3.779109945268674
3.1614625775848126,1.8170878783001347,3.842266181790593,2.8319851007684966,3.6557277044671976
3.4523828307712288,1.7437151986350792,3.842266181790593,2.8319851007684966,3.483152797753616
3.4523828307712288,1.7437151986350792,3.842266181790593,2.8319851007684966,3.483152797753616
3.3850411452098634,1.7698357354198422,3.842266181790593,2.8319851007684966,3.483152797753616
3.3791716486755643,1.7286504507272449,3.8449633792232425,2.7873991112464442,3.483152797753616
3.3791716486755643,1.7286504507272449,3.9007743242839354,2.7873991112464442,3.483152797753616
3.3791716486755643,1.7698357354198422,3.9007743242839354,2.7873991112464442,3.502234514263908
3.3791716486755643,1.7286504507272449,3.6667983389195102,2.7873991112464442,3.278428080474625
3.1405757543413433,1.7286504507272449,3.6411723469191637,2.7873991112464442,3.203425900532581
3.208301706212184,1.7698357354198422,3.4653043888626,2.8319851007684966,3.151063444910263
3.208301706212184,1.7698357354198422,3.3580223199908423,2.849084502367627,3.151063444910263
3.208301706212184,1.7698357354198422,3.072526657454757,2.849084502367627,2.8867513459484626
3.208301706212184,1.799220152029414,3.0187100382712453,2.849084502367627,2.838623955345557
3.208301706212184,1.799220152029414,2.9862699070538015,2.849084502367627,2.69576226408217
3.208301706212184,1.747580044348436,2.9862699070538015,3.1323976375695213,2.69576226408217
3.208301706212184,1.9274942182760182,2.9862699070538015,4.079419389485655,2.69576226408217
3.208301706212184,1.9274942182760182,2.9862699070538015,4.079419389485655,2.69576226408217
3.208301706212184,2.085853319694488,2.9862699070538015,4.10429351203852,2.617232688082238
2.802683387946202,2.1309056444442502,2.4139363203716186,4.10429351203852,2.3654233508191718
2.802683387946202,2.260091281244642,2.0447690530181193,4.198533125582395,1.9157422533961266
2.432846745075193,2.260091281244642,2.0447690530181193,4.198533125582395,1.730152737135346
2.073687052282372,2.260091281244642,2.040261633495923,4.198533125582395,1.6524401382376135
1.719316547858992,2.260091281244642,1.6730815004519028,4.198533125582395,1.6524401382376135
1.4303038233296996,2.3622539676278946,1.5558962353119492,4.198533125582395,1.6402155662245363
1.1853958075343145,2.3973480289046494,1.5283588463439104,4.198533125582395,1.477548527767979
1.1853958075343145,2.767029403977218,1.4138327829731014,4.198533125582395,1.3587156377652445
1.1853958075343145,3.1289951898398876,1.077974608321931,4.666211970947744,1.3587156377652445
1.1853958075343145,3.39406449894501,0.8530820739291872,4.929203505361833,1.3587156377652445
1.1853958075343145,3.1492355904356812,0.8530820739291872,4.723411362161642,1.3587156377652445
1.1853958075343145,3.1492355904356812,0.8530820739291872,4.2966497656041085,1.3587156377652445
1.1853958075343145,3.192956581427145,0.8530820739291872,3.235259556125418,1.3612273507051982
1.1911281128552478,3.0650365336659324,0.8530820739291872,2.145470412399583,1.3612273507051982
1.21112738970269,2.9300226015085102,0.8530820739291872,1.414702917087416,1.3612273507051982
1.21112738970269,2.9146933922627682,0.8530820739291872,1.414702917087416,1.3612273507051982
1.265056110316645,2.9146933922627682,0.8530820739291872,1.414702917087416,1.3612273507051982
1.265056110316645,2.9146933922627682,0.9539342525518576,1.230534586838776,1.9517132209251546
1.21112738970269,2.9146933922627682,1.664904532078324,1.2023678291955056,2.815229844853543
0.9141227606877422,2.9146933922627682,2.6741917346667288,1.1768648904068348,3.4088862574161247
0.7837240466178831,2.9146933922627682,3.627590742678131,1.1464824500116042,4.1472693946165196
0.7837240466178831,2.9146933922627682,4.579653443560231,1.1130483776571836,4.875807143538243
0.7837240466178831,2.9395484371201315,5.24824426727691,1.0518010690450255,5.4156598722096545
0.6166598989534257,2.9300226015085102,5.276911778813374,1.0415396196383369,5.521584108416221
0.6166598989534257,2.9300226015085102,5.24824426727691,0.8903364229817873,5.609091863178524
0.6069605315858819,2.9395484371201315,5.24824426727691,0.8602100351374218,5.63217799366851
0.5470569464282509,2.994202593610031,5.24824426727691,0.707579295938484,5.779820578356618
0.5470569464282509,2.994202593610031,5.24824426727691,0.6262918882413304,5.821299989738693
0.5470569464282509,2.90309871637584,5.24824426727691,0.6262918882413304,5.871006257194683
0.6069605315858819,2.841227924151176,5.24824426727691,0.6262918882413304,5.829215601541085
0.6069605315858819,2.841227924151176,5.127120236331738,0.6262918882413304,5.829215601541085
0.6069605315858819,2.841227924151176,5.127120236331738,0.6262918882413304,5.829215601541085
0.5345381325942334,2.841227924151176,5.15554052716219,0.6262918882413304,5.871006257194683
0.46445333248479176,2.9398161596725907,5.203427086367375,0.6262918882413304,5.881766902457949
0.44459530382449985,2.9398161596725907,5.203427086367375,0.6665685036315696,5.881766902457949
0.42765048659176186,2.9398161596725907,5.203427086367375,0.6665685036315696,5.881766902457949
0.42424386026178124,2.9398161596725907,5.196778465201182,0.6665685036315696,5.881766902457949
0.40048587678070563,2.9398161596725907,5.196778465201182,0.8260060737009087,5.881766902457949
0.40048587678070563,3.0731396041871957,5.196778465201182,0.8760170824349623,5.895860296731404
0.40048587678070563,3.0731396041871957,5.196778465201182,0.8807038348575567,5.920396990584069
0.40048587678070563,3.0638478125048336,5.203427086367375,0.8807038348575567,5.920396990584069
0.40048587678070563,2.9524580541857075,5.203427086367375,0.8607924616423609,5.90321151547173
0.40048587678070563,2.9398161596725907,5.203427086367375,0.8607924616423609,5.882850445511174
0.40048587678070563,2.9368350311176834,5.196778465201182,0.8607924616423609,5.882850445511174
0.4115674250659275,2.9368350311176834,5.130959675495505,0.8607924616423609,5.877726422190716
0.5260407513212226,2.9524580541857075,5.130959675495505,0.8607924616423609,5.877726422190716
0.5260407513212226,2.9368350311176834,5.079053690402679,0.8607924616423609,5.8486947058669925
0.5260407513212226,2.9368350311176834,4.987312643632819,0.8607924616423609,5.8486947058669925
0.5531075065002218,2.9368350311176834,4.987312643632819,0.8607924616423609,5.8486947058669925
0.565731832788437,2.9368350311176834,4.987312643632819,0.8203738694674789,5.8486947058669925
0.48441881960666644,2.9368350311176834,4.987312643632819,0.750001636957399,5.8486947058669925
0.48441881960666644,2.9368350311176834,4.987312643632819,0.750001636957399,5.862928657107322
0.48441881960666644,2.9368350311176834,4.987312643632819,0.7257595012090122,5.862928657107322
0.47865369113879047,2.9368350311176834,5.045304537348234,0.7257595012090122,5.8762060800949865
0.4786339284708735,2.968196686555705,5.11309544154858,0.7257595012090122,5.8762060800949865
0.4483138358914123,2.968196686555705,5.187772557847235,0.7257595012090122,5.8762060800949865
0.41154466010887386,3.0331256182379405,5.1905357729426465,0.7257595012090122,5.893096882759176
0.3843028379545487,3.0331256182379405,5.230667876508704,0.7257595012090122,5.893096882759176
0.3843028379545487,2.9901942002656883,5.230667876508704,0.7257595012090122,5.8851422348423865
0.3843028379545487,2.9901942002656883,5.247793654236135,0.7257595012090122,5.8851422348423865
0.3843028379545487,2.9901942002656883,5.247793654236135,0.7257595012090122,5.787563289598188
0.3843028379545487,2.952407842766477,5.247793654236135,0.7956210178915389,5.366769901069446
0.3843028379545487,2.952407842766477,5.045304537348234,0.8364099198488236,4.659287914646767
0.3843028379545487,2.952407842766477,3.9549473164220372,0.8881467930626764,3.4699161532707374
0.3843028379545487,2.9901942002656883,2.6240003514042463,0.8935986101753414,2.4901063716739316
0.3879213527135991,2.9901942002656883,1.667549663155989,0.8935986101753414,1.7885968425732408
0.4124554609548447,2.9901942002656883,1.1997363271295325,0.8935986101753414,1.5401037451283932
0.40262167924764286,2.9901942002656883,0.8988639121033188,0.9953339719443435,1.437373847255088
0.4124554609548447,3.0953981301879687,0.7800479629459056,1.0758534574605694,1.4234312205317268
0.4728234772986701,3.2696890869315705,0.6486621001513375,1.3324322490238474,1.413391932924143
0.48836775956428474,3.567241351250875,0.5576316806711475,1.8222519475320447,1.413391932924143
0.48836775956428474,3.567241351250875,0.47377141298200726,2.9564000086903883,1.413391932924143
0.48836775956428474,4.0795615551224,0.43653506598190583,3.984254517165957,1.413391932924143
0.48836775956428474,4.0795615551224,0.4140036378282316,5.18625260037374,1.413391932924143
0.48836775956428474,4.171049177237621,0.41317928253476066,5.783398854671645,1.413391932924143
0.48836775956428474,4.171049177237621,0.3678755887134872,6.0136639461875365,1.413391932924143
0.5808851011045444,4.171049177237621,0.35994638529579354,6.027663002226561,1.413391932924143
0.8042699431125497,4.171049177237621,0.3265772423364247,6.027663002226561,1.413391932924143
0.8561077750168947,4.171049177237621,0.3265772423364247,6.027663002226561,1.4475514977867874
0.8619770353223598,4.145477748669038,0.3265772423364247,6.0136639461875365,1.450010347490201
0.9803675370628747,4.11116481675055,0.3265772423364247,6.010394204287982,1.3919808695303835
0.9803675370628747,4.11116481675055,0.3265772423364247,6.010394204287982,1.3001604562346505
0.9803675370628747,4.11116481675055,0.3265772423364247,6.010394204287982,1.3001604562346505
0.9803675370628747,4.11116481675055,0.3265772423364247,6.008939297923557,1.3001604562346505
0.9803675370628747,4.11116481675055,0.3265772423364247,6.008939297923557,1.2003964969248295
0.9803675370628747,4.082606049540624,0.3244293034693404,5.965426587161464,1.1518354755400924
0.9252009418194838,4.082606049540624,0.3244293034693404,5.965426587161464,1.1518354755400924
0.7624804709627835,4.082606049540624,0.33788079232729956,5.965426587161464,1.1518354755400924
0.7312356677480615,4.082606049540624,0.3879258049977697,5.965426587161464,1.1518354755400924
0.7312356677480615,4.082646636301543,0.44078492739776653,6.000151866220719,1.1518354755400924
0.7312356677480615,4.082646636301543,0.44078492739776653,6.000151866220719,1.1518354755400924
0.7312356677480615,4.082646636301543,0.44078492739776653,6.000151866220719,1.1518354755400924
0.7312356677480615,4.082646636301543,0.41897200522830025,6.000151866220719,1.1635482147741116
0.7624804709627835,4.082646636301543,0.41897200522830025,6.000151866220719,1.1635482147741116
0.7930992564559197,4.103358030909911,0.41897200522830025,5.995123886263571,1.1635482147741116
0.9135208287876836,4.082606049540624,0.41897200522830025,5.9364281309279425,1.2095004995599776
0.9157884079506007,4.125746117675921,0.4233364780832372,5.898535990244654,1.2236875621017709
0.9797654965439435,4.016190036625234,0.5364329505278732,5.856110168254795,1.2254578264921028
1.0929763704823945,3.8666030827335467,0.5364329505278732,5.833403190453566,1.2254578264921028
1.2935663295048303,3.841636706325493,0.5364329505278732,5.691055300248857,1.2236875621017709
1.59246172522511,3.841636706325493,0.5364329505278732,5.628332340762938,1.2236875621017709
1.6755585817798286,3.841636706325493,0.6555096974827413,5.542646732970743,1.2236875621017709
1.7732335189206416,3.587711755924308,0.9117061763798301,5.52576163066239,1.2095004995599776
1.8230755600197155,3.5645140215053535,1.0504381989230342,5.46126752379281,1.2028177430997458
1.988671855172925,3.2004338812415867,1.2084431708275722,5.46126752379281,1.1736458872733637
2.0257665607176927,3.2004338812415867,1.2559900982923222,5.423869438280248,1.1736458872733637
2.0668168097178192,3.2004338812415867,1.2827461559620643,5.370392760912219,1.1736458872733637
2.0668168097178192,3.2004338812415867,1.4486191162978281,5.165149696024049,1.1736458872733637
2.035373374878122,3.147240692104726,1.4486191162978281,5.165149696024049,1.1686762609232064
2.035373374878122,3.147240692104726,1.4486191162978281,5.165149696024049,1.0189119070866635
2.035373374878122,3.147240692104726,1.3950960022157246,5.165149696024049,0.9541559535401511
2.0257665607176927,3.147240692104726,1.3950960022157246,5.165149696024049,0.9541559535401511
2.015796334134687,3.147240692104726,1.3950960022157246,5.165149696024049,0.8835850817940594
2.015796334134687,3.2004338812415867,1.3950960022157246,5.165149696024049,0.8835850817940594
2.015796334134687,3.2290214505771995,1.442642613912945,5.165149696024049,0.8835850817940594
2.015796334134687,3.2290214505771995,1.442642613912945,5.165149696024049,0.8835850817940594
2.015796334134687,3.1271508989821863,1.442642613912945,5.165149696024049,0.8835850817940594
2.015796334134687,3.1271508989821863,1.442642613912945,5.275483621699254,0.8835850817940594
2.015796334134687,3.1271508989821863,1.442642613912945,5.352668495003347,0.8835850817940594
1.9533976180086352,3.2398480569959562,1.442642613912945,5.362730170776175,0.8533755331285973
1.9490189219386735,3.2398480569959562,1.442642613912945,5.362730170776175,0.8533755331285973
1.9490189219386735,3.2398480569959562,1.442642613912945,5.362730170776175,0.6530823165317807
2.015796334134687,3.2398480569959562,1.300159564412959,5.362730170776175,0.0
1.9363250504852532,3.2398480569959562,1.300159564412959,5.362730170776175,0.0
1.9363250504852532,3.2398480569959562,1.300159564412959,5.362730170776175,0.0
1.8357082318827662,3.291402943021931,1.300159564412959,5.362730170776175,0.0
1.8101256308204006,3.291402943021931,1.300159564412959,5.370232228059872,0.0
1.809905758385949,3.3754473846102098,1.1823765165387061,5.370232228059872,0.0
1.619888594799476,3.4306212962987126,1.1291364372904236,5.530109588361036,0.0
1.579446475206777,3.4306212962987126,1.1268345781617266,5.530109588361036,0.0
1.5602287984939653,3.4306212962987126,1.1268345781617266,5.530109588361036,0.0
1.430089143890135,3.4380073072679704,1.0539434177464582,5.600658131731465,0.0
1.430089143890135,3.4380073072679704,0.9943250986153073,5.600658131731465,0.0
1.4261950521096454,3.4380073072679704,0.9933741741625807,5.600658131731465,0.0
1.4261950521096454,3.4380073072679704,0.8394404138303334,5.600658131731465,0.0
1.4261950521096454,3.4380073072679704,0.8394404138303334,5.66950815801965,0.0
1.4261950521096454,3.576494617908985,0.8394404138303334,5.705022796610909,0.0
1.4261950521096454,3.747517769458871,0.8394404138303334,5.732491954188917,0.8205416915739914
1.4261950521096454,3.747517769458871,0.8007544652602387,5.754667749342616,0.8763614968640231
1.430089143890135,3.6794270198230654,0.8007544652602387,5.732491954188917,0.8893962131934241
1.430089143890135,3.6794270198230654,0.7760891827386025,5.802799171172072,0.8893962131934241
1.4193819210645722,3.6794270198230654,0.7610485208319875,5.802799171172072,0.8763614968640231
1.4339831637351002,3.6794270198230654,0.7610485208319875,5.788283306643095,0.8893962131934241
1.4466298872410657,3.710970966370989,0.7760891827386025,5.788283306643095,0.8893962131934241
1.475104342882338,3.710970966370989,0.7754653559201494,5.788283306643095,0.8761287958989422
1.4777086365379062,3.6794270198230654,0.7754653559201494,5.765667021723307,0.8761287958989422
1.4827039996028861,3.6210498573163212,0.7754653559201494,5.765667021723307,0.833397817839388
1.4827039996028861,3.6210498573163212,0.7754653559201494,5.765667021723307,0.833397817839388
1.4827039996028861,3.6210498573163212,0.7754653559201494,5.658101766058078,0.833397817839388
1.4827039996028861,3.6794270198230654,0.7754653559201494,5.68580785587397,0.833397817839388
1.5399125603886854,3.689854989638132,0.8353425561241608,5.658101766058078,0.833397817839388
1.6302046348228902,3.5854783386436275,0.9336211916937479,5.644519003790215,0.8278385111920158
1.6302046348228902,3.498870592550337,1.0751250206513656,5.644519003790215,0.822070866050423
1.6581205239603716,3.498870592550337,1.0751250206513656,5.644519003790215,0.822070866050423
1.6663269145684814,3.498870592550337,1.0751250206513656,5.504266872458457,0.822070866050423
1.6663269145684814,3.498870592550337,1.1022251630386226,5.480578686291334,0.844859548920268
1.6663269145684814,3.409121309464922,1.1232970861823612,5.3588304048128546,0.844859548920268
1.7916011923280741,3.2238912496898706,1.1232970861823612,5.164124963077115,0.8509326427476573
1.8075820721882516,3.0708093680216395,1.1232970861823612,3.6900870981644167,0.8509326427476573
1.8075820721882516,2.8309635281346117,1.1232970861823612,2.2624615898467835,0.8509326427476573
1.705693411455387,2.6205194528812368,1.1232970861823612,1.877300900197075,0.867576158722792
1.6663269145684814,2.4472389445069838,1.1505148242446444,1.4132339261471247,1.1640056207004044
1.6663269145684814,2.4472389445069838,1.1866551666847625,1.123432543102817,1.3963479445654612
1.6581205239603716,2.4472389445069838,1.5449100093094896,1.0689014745241554,1.5698283663690533
1.6133279192799317,2.4472389445069838,1.7845551210648565,0.82441039068168,2.067641900556823
1.524877345954955,2.4472389445069838,2.150088994122569,0.812666197209405,2.74960194132817
1.4471356043294212,2.3411111703374616,2.63115636136046,0.7199658614507158,3.161033022622977
1.2488958943034922,2.3411111703374616,3.3960074215371168,0.6165376562940649,3.570623400872413
1.2128486987213623,2.3411111703374616,4.704664330699087,0.612455044375713,5.074146008082168
1.1946243630643862,2.3411111703374616,4.841818856176398,0.575023410744225,5.50022447942255
1.0842903022526769,2.4582063145492024,4.841818856176398,0.5640134632723633,5.517351438552989
1.0190265360911361,2.5756280668013023,4.924560739686334,0.543624831668016,5.562748421810133
0.9937366290426604,2.6009239784875695,5.106076538298702,0.543624831668016,5.562748421810133
0.907615731291441,2.5756280668013023,5.106076538298702,0.543624831668016,5.690436168450249
0.8772967243073346,2.5756280668013023,5.106076538298702,0.543624831668016,5.709086938551165
0.808767243832151,2.5756280668013023,5.036642990489149,0.543624831668016,5.709086938551165
0.7346287587321775,2.652413459242414,5.036642990489149,0.543624831668016,5.745636406683207
0.6917113331450949,2.8313514923968777,5.106076538298702,0.5453928758574601,5.774770723083974
0.6917113331450949,2.8313514923968777,5.14062218135089,0.5538520073500538,5.779679941074301
0.6917113331450949,2.7783511169976878,5.14062218135089,0.5538520073500538,5.783079451948776
0.6917113331450949,2.7783511169976878,5.14062218135089,0.5538520073500538,5.783079451948776
0.7346287587321775,2.7783511169976878,5.14062218135089,0.6939958328158209,5.783079451948776
0.7503736573385262,2.8313514923968777,5.14062218135089,0.6939958328158209,5.7623651737230235
0.7503736573385262,2.751022573965556,5.14062218135089,0.7357649753511958,5.739449826934361
0.7503736573385262,2.751022573965556,5.236201722397507,0.7357649753511958,5.739449826934361
0.7503736573385262,2.6098887498232775,5.14062218135089,0.7357649753511958,5.739449826934361
0.7689861361324808,2.6098887498232775,5.14062218135089,0.7357649753511958,5.591121298355232
0.8604281751859404,2.6098887498232775,5.136295697136226,0.7357649753511958,5.5335130580471095
0.8604281751859404,2.6098887498232775,5.136295697136226,0.7357649753511958,5.532772596694675
0.9914874899092994,2.5345066009440522,5.136295697136226,0.7357649753511958,5.4882293477552
1.0833329914557477,2.4426498153207774,5.176756224109378,0.7357649753511958,5.456932957406966
1.2305710420712248,2.2984300660844674,5.176756224109378,0.7357649753511958,5.415523132040948
1.2976333723998843,2.2221879244970943,5.136295697136226,0.7357649753511958,5.269696551033727
1.342497318599724,2.2221879244970943,5.036127189631227,0.7716634569578852,5.206526812019533
1.610307134344422,2.2221879244970943,5.036127189631227,0.9318740026271732,5.140097294815061
1.610307134344422,2.216780833951575,5.036127189631227,0.9952728314355158,5.140097294815061
1.6799446288509516,2.01959645303556,5.032765095731167,1.0603263335055784,5.083548891744195
1.7929478134537515,1.913291851959925,5.032765095731167,1.0973579464412169,5.068403121496894
1.7929478134537515,1.913291851959925,4.93426819495523,1.0973579464412169,5.068403121496894
1.8678129390676899,1.913291851959925,4.829316926418313,1.099426563193322,5.068403121496894
1.966770873173722,1.913291851959925,4.829316926418313,1.1424123582553543,5.068403121496894
1.966770873173722,1.9617703581854515,4.829316926418313,1.2059615225504348,5.068403121496894
1.9912059857950055,1.9617703581854515,4.93426819495523,1.2653323366680098,5.068403121496894
1.9912059857950055,1.9617703581854515,4.93426819495523,1.2653323366680098,5.018963335299632
1.9912059857950055,1.9617703581854515,4.829316926418313,1.2653323366680098,5.001128683776588
1.9912059857950055,1.9617703581854515,4.599064193392533,1.2653323366680098,4.634062369935771
2.0214156076600673,2.01959645303556,4.599064193392533,1.3972111548417494,4.634062369935771
2.0214156076600673,2.010988896318088,4.599064193392533,1.4855669363664314,4.585890105195552
2.0214156076600673,2.0208994293269193,4.599064193392533,1.4855669363664314,4.585890105195552
2.0214156076600673,1.8399637511198665,4.599064193392533,1.4855669363664314,4.395016993420812
2.0214156076600673,1.8399637511198665,4.52609225297053,1.5059002908159127,4.102288673042364
2.4239033345687986,1.7657193721390039,4.175971376636329,1.5067623287308105,3.905316004538805
2.4540378158289373,1.7569452290626382,4.175971376636329,1.7518217015293902,3.672680826234351
2.6800223003286643,1.7569452290626382,4.175971376636329,2.1292446625646573,3.672680826234351
2.9599281978378325,1.7569452290626382,3.8938324403483704,2.3049745624681224,3.6510175797292894
2.9599281978378325,1.7569452290626382,3.8938324403483704,2.3049745624681224,3.5731616120711345
2.9599281978378325,1.7569452290626382,3.8146227601451304,2.3049745624681224,3.5731616120711345
2.9599281978378325,1.7569452290626382,3.8020998789875535,2.3923472627820512,3.5731616120711345
2.765942531731744,1.7569452290626382,3.8020998789875535,2.3421988629781936,3.5731616120711345
2.711949418007779,1.8442844822125306,3.8020998789875535,2.3421988629781936,3.5731616120711345
2.711949418007779,1.8599577387957495,3.8020998789875535,2.1631782132865136,3.5731616120711345
2.711949418007779,1.8623982058327444,3.8020998789875535,2.1631782132865136,3.5731616120711345
2.711949418007779,1.8880475271957546,3.6600997312021604,2.1631782132865136,3.4191174245256084
2.77665588532187,1.8996108427569394,3.586710310455218,2.1631782132865136,3.21353666946845
2.711949418007779,1.9168669591564722,3.371852056913689,2.1631782132865136,3.0290719148374756
2.711949418007779,1.9447158255328691,3.371852056913689,2.1631782132865136,3.0290719148374756
2.711949418007779,1.9182732917668988,3.5864699714501223,2.1631782132865136,3.0290719148374756
2.711949418007779,1.9182732917668988,3.458948517134446,2.1631782132865136,3.0290719148374756
2.711949418007779,1.9182732917668988,3.371852056913689,2.1631782132865136,3.0290719148374756
2.8135960096301993,1.9182732917668988,3.371852056913689,2.1631782132865136,3.0290719148374756
2.903110150857626,1.9182732917668988,3.371852056913689,2.8745916230244655,3.0290719148374756
3.0044830106939457,2.0456115459269624,3.371852056913689,2.8797956878150353,3.0290719148374756
2.8567075700112974,1.9192862399965,3.371852056913689,2.387079075442663,3.0290719148374756
2.6898529107373057,1.9440096435722047,3.458948517134446,2.008106976661384,3.139808875847481
2.6898529107373057,2.030484572038319,3.458948517134446,2.008106976661384,3.479776363132354
2.8567075700112974,2.030484572038319,3.9319219949288757,2.008106976661384,3.7258887660233375
2.8567075700112974,2.030484572038319,3.9319219949288757,2.008106976661384,3.9454893567916196
2.6898529107373057,2.240656407791026,3.9319219949288757,2.008106976661384,4.01498092725312
2.6898529107373057,2.030484572038319,3.971755623033292,2.008106976661384,4.01498092725312
2.6898529107373057,2.030484572038319,4.492847290513305,2.008106976661384,4.414428557263954
2.6898529107373057,2.030484572038319,4.464798210132957,2.008106976661384,4.376925237681648
2.6898529107373057,2.030484572038319,4.189402003796073,2.008106976661384,4.0235591970387015
2.6898529107373057,2.030484572038319,4.189402003796073,2.008106976661384,4.0235591970387015
2.7104901247641995,2.1680614586454534,4.189402003796073,2.108100235959112,4.0235591970387015
2.845802260490554,2.2381157451592113,4.186261943860684,2.222524244498511,4.0235591970387015
2.7699641558181116,2.1680614586454534,4.186261943860684,2.137215341315041,4.0235591970387015
2.7699641558181116,1.9478840245729783,4.067689805711537,2.137215341315041,4.0235591970387015
2.7699641558181116,1.9323795023618549,4.067689805711537,2.137215341315041,4.0235591970387015
2.8569084893880623,1.9323795023618549,4.067689805711537,2.1536821794364367,4.0235591970387015
2.9388562431654606,1.9478840245729783,4.067689805711537,2.2581592580980514,4.0235591970387015
2.9388562431654606,1.9478840245729783,4.067689805711537,2.2581592580980514,4.0235591970387015
2.9388562431654606,1.9478840245729783,4.028282306961914,2.2581592580980514,4.110527071762481
2.9388562431654606,1.9478840245729783,4.186261943860684,2.2581592580980514,4.212499716657175
2.9388562431654606,1.9478840245729783,4.145891860017395,2.2581592580980514,4.309458036857027
2.7699641558181116,1.9478840245729783,4.145891860017395,2.137215341315041,4.309458036857027
2.3869887210857654,2.0183250632212832,4.145891860017395,1.81975732679319,4.309458036857027
2.31573039325583,2.078123181469278,4.5138433149240464,1.6998946839379727,4.309458036857027
2.0793539603467273,2.1382706754618357,4.516739781846464,1.5888497428184625,4.309458036857027
2.0793539603467273,2.1386985534878917,4.516739781846464,1.5888497428184625,4.34656749688288
2.0793539603467273,2.1386985534878917,4.516739781846464,1.5888497428184625,4.34656749688288
2.0793539603467273,2.1386985534878917,4.516739781846464,1.5888497428184625,4.534432099853009
2.0793539603467273,2.2902695036586573,4.516739781846464,1.5888497428184625,4.534432099853009
2.0793539603467273,2.3572511124293563,4.605026431822447,1.5888497428184625,4.579299295574498
2.0793539603467273,2.3572511124293563,4.760269984240119,1.5888497428184625,4.588116593438588
2.0793539603467273,2.2902695036586573,4.63602726945024,1.5888497428184625,4.534432099853009
2.0793539603467273,2.280708637642756,4.2306003214410435,1.5888497428184625,4.211729444737482
2.3712417061206676,2.1382706754618357,3.9851090699640705,1.730437110776439,3.807880028158966
2.8048741635194574,2.0418264479549713,3.9851090699640705,2.169757935306704,3.761393599567643
2.94205838100927,1.6369153687077251,3.8246131883557055,2.4428128437853265,3.6514837167016916
2.9555810280263164,1.6369153687077251,3.795141110093288,2.6374013778839527,3.6514837167016916
2.9555810280263164,1.3343534962779449,3.7826785369927265,2.6374013778839527,3.460339290452804
2.9555810280263164,1.3343534962779449,3.6729359456285087,2.6374013778839527,3.407227635073761
3.2135019687103274,1.3343534962779449,3.6729359456285087,2.852833878212835,3.407227635073761
3.299863754264124,1.3341988729800165,3.6729359456285087,2.852833878212835,3.407227635073761
3.245431271349374,1.3082447750745285,3.771085875529658,2.6088912090505096,3.407227635073761
3.245431271349374,1.3082447750745285,3.771085875529658,2.6088912090505096,3.407227635073761
3.245431271349374,1.3082447750745285,3.6729359456285087,2.6088912090505096,3.407227635073761
3.3398877063806243,1.3082447750745285,3.6729359456285087,2.6088912090505096,3.460339290452804
3.3398877063806243,1.3082447750745285,3.6729359456285087,2.6088912090505096,3.460339290452804
3.2243376577981313,1.3082447750745285,3.6729359456285087,2.537298454013417,3.460339290452804
3.2243376577981313,1.3871273297971003,3.771085875529658,2.4806698649975125,3.460339290452804
3.2243376577981313,1.453216523966135,3.969967460776214,2.4806698649975125,3.8428629142773016
3.2243376577981313,1.453216523966135,4.312963680149588,2.4806698649975125,3.9442849056337934
3.2243376577981313,1.8218603650267502,4.3011476017600305,2.4806698649975125,4.008949626276804
2.774188285857777,2.0163920780756266,4.3011476017600305,2.220388308171303,4.008949626276804
2.7477473751216346,2.0737137189392447,4.3011476017600305,2.405282240997434,4.008949626276804
2.5995299883952314,2.128077513468306,4.30489795851388,2.102040223899611,4.008949626276804
2.5995299883952314,2.2160969848977197,4.30489795851388,2.102040223899611,4.312630631100221
2.5995299883952314,2.128077513468306,4.3011476017600305,2.102040223899611,4.171017734962245
2.5995299883952314,2.051950367836942,4.2365861431318645,2.102040223899611,3.974575808553645
2.5995299883952314,2.051950367836942,4.058219073853146,2.220388308171303,3.646752207816091
2.5995299883952314,2.051950367836942,4.001860098752738,2.220388308171303,3.5685685902139497
2.5995299883952314,2.051950367836942,3.9028451869881975,2.220388308171303,3.2879128741683816
2.5995299883952314,2.051950367836942,3.5600603575478984,2.220388308171303,3.181645684597788
2.5995299883952314,2.051950367836942,2.8692038969948155,2.220388308171303,2.731275330101753
3.0798243057604084,2.051950367836942,2.6581596620135928,2.361794284065036,2.588269042917362
2.5995299883952314,2.081936421781465,2.4942699144691574,2.606032977199476,2.501597883376974
2.325361949354135,2.3160668259571002,2.3488175438251644,3.1287704095829016,1.9423673554672014
1.5787159055630424,2.3160668259571002,2.0492771750984295,3.7209198753823967,1.9126443761217589
1.5469494759505085,2.5313700269145536,1.5210550824422608,3.7863284652967284,1.617387747066879
1.5224066003331822,2.58281561014764,1.4531139788508658,3.9159234328308012,1.4708281758440929
1.5083339368768283,2.6417195623618888,1.4483743905441835,4.04123184552671,1.3810294915403931
1.418204736872731,2.7550078185198585,1.4483743905441835,4.3559832611331455,1.3810294915403931
1.3992443486072894,2.8830019656134183,1.4483743905441835,4.855028828230636,1.3810294915403931
1.3087981594285474,3.2546076513077398,1.4378752681919718,4.987534938037954,1.3810294915403931
1.0746051901723186,3.3468153666909455,1.3375098677226975,5.261973709059345,1.3611548212645943
1.0746051901723186,3.5122551917566955,1.2110055902637313,5.261973709059345,1.2948673563979192
1.0746051901723186,3.6416042596663254,1.1195305740066424,5.328636034593367,1.2948673563979192
1.0746051901723186,3.561532229096928,0.793801669618217,5.303697455182258,1.2948673563979192
1.3087981594285474,3.5122551917566955,0.793801669618217,4.604598049722292,1.2948673563979192
1.3703923722383955,3.4558436048407897,0.793801669618217,4.2198241563757515,1.2948673563979192
1.3703923722383955,3.2707384888336053,0.793801669618217,3.0407150680210453,1.406009521721741
1.3992443486072894,3.106643149804434,0.793801669618217,2.0069447576712354,1.4148211530459402
1.1524312176695963,2.9546436691898035,0.793801669618217,1.385888829329431,1.4148211530459402
1.1524312176695963,2.9546436691898035,0.793801669618217,1.385888829329431,1.4148211530459402
1.202549927395214,2.9546436691898035,0.793801669618217,1.385888829329431,1.4535572327644952
1.202549927395214,2.898365303481444,1.0064455292843528,1.019810087878951,1.8588102485710747
1.1425051389699765,2.897964753491651,1.8054328090508518,0.964200278395674,2.8041960385349727
0.9708547279779736,2.8717850607269746,2.726106668294409,0.964200278395674,3.570755364312694
0.6545311252617073,2.8717850607269746,3.733613030258138,0.964200278395674,4.295133459114651
0.6322510944483906,2.898365303481444,4.709833837363833,0.964200278395674,5.06394309357444
0.5764454642022968,2.9755376756609584,5.099735978508578,0.964200278395674,5.491573662493225
0.49920558767068834,2.9755376756609584,5.153351219528035,0.964200278395674,5.619286836680178
0.47642117771686965,2.9755376756609584,5.153351219528035,0.964200278395674,5.652173115312783
0.4331360899151963,3.0079792915818144,5.153351219528035,0.964200278395674,5.660405368535298
0.4331360899151963,3.044704049919747,5.153351219528035,0.8578317918205294,5.811806334414879
0.4331360899151963,3.044704049919747,5.153351219528035,0.8488745045451209,5.9225142868946214
0.4331360899151963,3.044704049919747,5.153351219528035,0.8280514870585909,5.93594960284586
0.4331360899151963,3.044704049919747,5.199835037988172,0.73794192393744,5.917087620599583
0.4331360899151963,3.044704049919747,5.199835037988172,0.73794192393744,5.917087620599583
0.3929946937599386,3.0488688370724617,5.199835037988172,0.73794192393744,5.917087620599583
0.36214865109149064,3.0488688370724617,5.199835037988172,0.73794192393744,5.917087620599583
0.3253808799019653,3.0488688370724617,5.215994918740225,0.73794192393744,5.917087620599583
0.33181178731862637,3.0488688370724617,5.29318746667471,0.73794192393744,5.917087620599583
0.33181178731862637,3.0469523141869312,5.29318746667471,0.73794192393744,5.911096135972745
0.3253808799019653,3.0469523141869312,5.27206252577505,0.73794192393744,5.911096135972745
0.3253808799019653,3.0469523141869312,5.27206252577505,0.73794192393744,5.911096135972745
0.3253808799019653,3.0488688370724617,5.27206252577505,0.7752669208588826,5.911096135972745
0.3253808799019653,3.0813753628167797,5.27206252577505,0.8011773414578688,5.92168002821452
0.3253808799019653,3.0813753628167797,5.282889592341525,0.8011773414578688,5.92168002821452
0.3253808799019653,3.0469523141869312,5.27206252577505,0.8871723435471077,5.92168002821452
0.3253808799019653,2.9229597417377877,5.27206252577505,0.8871723435471077,5.907979137059341
0.33181178731862637,2.8883947114897035,5.27206252577505,0.8871723435471077,5.88974413624589
0.4020519835534587,2.8883947114897035,5.251624188253971,0.9165285856078028,5.88974413624589
0.4217648335562589,2.8883947114897035,5.092392218472219,0.9165285856078028,5.88974413624589
0.4217648335562589,2.8883947114897035,5.092392218472219,0.9165285856078028,5.88974413624589
0.4217648335562589,2.8883947114897035,5.092392218472219,0.8086909255858235,5.88974413624589
0.48934471188524437,2.8883947114897035,5.092392218472219,0.8086909255858235,5.88974413624589
0.38043459898837384,2.8883947114897035,5.092392218472219,0.8086909255858235,5.8566802631341615
0.37087694598885856,2.8883947114897035,5.092392218472219,0.8559772770356533,5.8566802631341615
0.3546323294029629,2.9229597417377877,5.092392218472219,0.8729143517091784,5.88974413624589
0.30989690747882165,2.9975549002888613,5.173167466370393,0.8729143517091784,5.89616098591337
0.3003772485066512,3.1243745456293066,5.184166207111516,0.8729143517091784,5.919906822371105
0.2868835411233402,3.1243745456293066,5.249763436704564,0.8729143517091784,5.934955472395108
0.2868835411233402,3.1248858641372337,5.2622636024722915,0.8729143517091784,5.938046778959193
0.2868835411233402,3.1248858641372337,5.289219929495816,0.8729143517091784,5.879485578154552
0.2868835411233402,3.1248858641372337,5.308011331529096,0.8729143517091784,5.644176304633806
0.2868835411233402,3.015922733224238,5.173167466370393,0.9620008158439045,4.679380353247948
0.2868835411233402,3.0886038406067127,3.8561529068209137,0.9888073079430089,3.425988425469098
0.2868835411233402,3.1248858641372337,2.7526461377817206,1.017505519066292,2.538589296560663
0.2868835411233402,3.1666093765396863,1.8028507080555338,1.0443014197423899,1.8700482174814572
0.31373574811756183,3.1666093765396863,1.3885435251975018,1.073525960128904,1.6084986787067965
0.31373574811756183,3.1666093765396863,1.0040708812434587,1.0793628916522917,1.5015050942028465
0.33664353496001975,3.254903299720234,0.8899185553797168,1.1148832719512056,1.470342546419201
0.36485166630638344,3.377581704560934,0.689450735806965,1.277190549070025,1.470342546419201
0.49757360375451126,3.663946344093762,0.53551970382071,1.5961225687025682,1.470342546419201
0.5292831027596989,3.837811419187217,0.49017820294159703,2.5651828173576217,1.470342546419201
0.5292831027596989,4.067358742813723,0.47277271202068755,3.8790125281137757,1.470342546419201
0.5292831027596989,4.087289888106537,0.3924728254657443,5.07600049111429,1.470342546419201
0.5292831027596989,4.171839455726809,0.38123521317813414,5.7596856913039245,1.470342546419201
0.5292831027596989,4.214476257057668,0.33787544765095356,6.006865631072965,1.470342546419201
0.6458535109405223,4.191244102341751,0.25107125089370336,6.029865604008742,1.4977167151150805
0.7900074171636485,4.189377808612798,0.25107125089370336,6.029865604008742,1.4876327027066103
0.874158018678483,4.132517091029599,0.25107125089370336,6.029865604008742,1.4977167151150805
0.9972434262361353,4.1266906281602305,0.25107125089370336,6.0235354966893295,1.4977167151150805
1.1475426910293454,4.1266906281602305,0.25107125089370336,6.0235354966893295,1.507432547303092
1.1475426910293454,4.1266906281602305,0.25107125089370336,6.007780139303834,1.448925205915603
1.1475426910293454,4.09948931227449,0.25107125089370336,6.000842633834727,1.4302999707057606
1.13947580426942,4.081702310028775,0.25107125089370336,5.99021767197765,1.3522593294309215
1.0401969685387875,4.023018068463465,0.33604689997299886,5.988924588629786,1.0696028616764641
0.8433701070124654,4.023018068463465,0.36554101886213286,5.988924588629786,1.0696028616764641
0.7824586093096596,4.023018068463465,0.38442073720139636,5.988924588629786,1.0696028616764641
0.767649085056851,4.023018068463465,0.4257518211653933,5.988924588629786,1.0696028616764641
0.767649085056851,4.049682295012044,0.38442073720139636,6.000842633834727,1.0696028616764641
0.767649085056851,4.049682295012044,0.38442073720139636,6.000842633834727,1.0696028616764641
0.767649085056851,4.049682295012044,0.38442073720139636,6.012603075074518,1.0696028616764641
0.767649085056851,4.049682295012044,0.38442073720139636,6.012603075074518,1.0696028616764641
0.7824586093096596,4.049682295012044,0.38442073720139636,6.013599712064834,1.0696028616764641
0.7824586093096596,4.093713840982362,0.38442073720139636,5.966258547590299,1.204152030170676
1.005797689808848,4.049682295012044,0.38442073720139636,5.940224574506387,1.212854341979862
1.1854789601693665,4.093713840982362,0.38953412099153645,5.845349395677305,1.253683244270027
1.2927218943416705,3.800640446653963,0.45769485972632834,5.828358552532197,1.253683244270027
1.338383103546688,3.7700968571220934,0.45769485972632834,5.665491214579318,1.1850552674291912
1.6382592463486358,3.7700968571220934,0.45769485972632834,5.618349159142539,1.1850552674291912
1.655898443302407,3.741070359170707,0.48391917003897605,5.3495875130683945,1.1850552674291912
1.739323351008045,3.4040025032505796,0.7814374086191288,5.1761443223049755,1.1850552674291912
1.8724656139926628,3.3819408652873384,0.966140688431071,4.9643726219328315,1.1850552674291912
1.9192411349504963,2.728949444053256,1.1118736820397095,4.744435309796503,1.1850552674291912
1.9746519601101349,2.580389548244201,1.1481772810770514,4.561905201386219,1.1850552674291912
1.9746519601101349,1.9738762519889905,1.2219390974723467,4.308852159548414,1.1850552674291912
2.26900520698908,1.9738762519889905,1.3970403501801585,4.308852159548414,1.1850552674291912
2.3605960291607184,1.9738762519889905,1.6060303942523273,4.308852159548414,1.2990296045543275
2.6091531519306987,1.9738762519889905,1.6112407522454075,4.308852159548414,1.2990296045543275
2.725294930529497,1.9738762519889905,1.6831772510876757,4.308852159548414,1.4252139152976815
2.6091531519306987,1.9738762519889905,1.7661273629873406,4.308852159548414,1.5754390725976721
2.565600152345035,1.9738762519889905,1.8812548856744304,4.308852159548414,1.2661229152717972
2.339318813995072,1.9738762519889905,1.8023192322656851,4.308852159548414,1.2661229152717972
2.243182653996613,1.9738762519889905,1.7661273629873406,4.308852159548414,1.242259987500859
2.113882042806784,2.4126007531098024,1.6831772510876757,4.385695509434251,1.2312526529438435
2.1038995687257156,2.563088776569487,1.63155564351086,4.397746065422932,1.2067017202816777
2.0652064282968747,2.7249900591613727,1.417950214308079,4.803664317450476,1.1496504523254023
2.020537503013872,2.8547038322863396,1.3719095962816275,5.046385448018151,1.1254926384877009
1.8205205315849013,2.8547038322863396,1.3173035158428639,5.321097300030763,1.0007110546055304
1.6248736964500707,3.184181406965764,1.3173035158428639,5.343044844761474,0.9533550256831645
1.599878750213566,3.402622789479285,1.3173035158428639,5.344162660136681,0.8962784405221175
1.561652002289432,3.402622789479285,1.3057366397932137,5.412590665984971,0.8533934520955777
1.5257338278388846,3.402622789479285,1.2125858444589575,5.450067014181837,0.8533934520955777
1.5090787434319544,3.402622789479285,0.9554736012995487,5.546652259869303,0.8533934520955777
1.474635746387519,3.402622789479285,0.9458379603068567,5.630877089445533,0.8533934520955777
1.3840214614023967,3.6981212940745616,0.9458379603068567,5.632624629000699,0.8533934520955777
1.3840214614023967,3.6981212940745616,0.8793195310512154,5.640256063723814,0.8533934520955777
1.3840214614023967,3.700161756090535,0.840911198565576,5.648125244362195,0.8529806507292783
1.3599164451797106,3.6669751904646604,0.840911198565576,5.694394221957565,0.8529806507292783
1.3599164451797106,3.6669751904646604,0.840911198565576,5.7313651026290255,0.8533934520955777
1.3599164451797106,3.6669751904646604,0.840911198565576,5.74963620116474,0.8533934520955777
1.3840214614023967,3.6669751904646604,0.840911198565576,5.762099485227371,0.885538540843707
1.3908892949457454,3.6669751904646604,0.840911198565576,5.760605956768786,0.885538540843707
1.4058439842385235,3.586638457954649,0.8741515883616761,5.74963620116474,0.88412103631999
1.5113083913645284,3.586638457954649,0.8741515883616761,5.74963620116474,0.8529806507292783
1.6194536447056427,3.586638457954649,0.8741515883616761,5.667482621074421,0.813534350853105
1.6194536447056427,3.586638457954649,0.8741515883616761,5.667482621074421,0.813534350853105
1.6194536447056427,3.613552925071611,0.8910371453935444,5.691543955874155,0.813534350853105
1.6194536447056427,3.613552925071611,0.8910371453935444,5.691543955874155,0.813534350853105
1.6305534916289746,3.613552925071611,0.8910371453935444,5.67420657051665,0.813534350853105
1.6020196512171734,3.613552925071611,0.9883554564823213,5.67420657051665,0.813534350853105
1.6020196512171734,3.613552925071611,0.9883554564823213,5.667482621074421,0.813534350853105
1.6020196512171734,3.613552925071611,0.9883554564823213,5.596520137848236,0.813534350853105
1.6020196512171734,3.6105466330570652,1.1246381367717233,5.572036406297933,0.8706975380592432
1.6020196512171734,3.6105466330570652,1.1246381367717233,5.531205548793178,0.9020907316585721
1.6020196512171734,3.2126613907717587,1.1246381367717233,5.514689332045062,0.9641623125754893
1.6020196512171734,3.2126613907717587,1.1246381367717233,5.256231496903737,0.9946940656046285
1.8323308057539953,2.8667761422252322,1.1246381367717233,4.401785401500582,0.9946940656046285
1.8702880481510258,2.7395813974698093,1.1246381367717233,4.045740699707121,0.9946940656046285
2.360687841243789,2.3023439887791546,1.2286670638103985,4.010992629938547,1.0816315152675462
2.492714764130462,2.0176851315808135,1.4504380227873428,3.8942221914582262,1.196791479733909
2.68367151583335,2.0176851315808135,1.6521339318891084,3.644773645565202,1.3268639396251583
2.941816753823993,2.0176851315808135,1.7643123494784445,3.3569066534115257,1.6844119350969962
2.8293332942614327,1.788123049390735,1.8806438253630522,2.6540605540589075,1.7081958701216318
2.7369567492539484,1.751408749180045,2.004547780991188,2.3398330161948624,1.840110052658424
2.7455036433759594,1.6978364037558211,2.3586962560903397,1.9680948969288288,1.9857483696314076
2.760585886080088,1.6978364037558211,2.5464572323650745,1.9680948969288288,2.932666943962577
2.519318025164273,1.6978364037558211,3.449637150521976,1.7275377247242671,3.2027904547105686
2.4497347230466144,1.6978364037558211,3.5306428303198483,1.7098942681057336,3.512141676163509
2.1849225955832865,1.751408749180045,3.7295496890559443,1.4785282653063807,3.743824208840532
1.5832403938805346,1.8652875844335117,4.045095094111833,1.3088196037070927,4.000314772739379
1.5371968095860244,1.8652875844335117,4.36716758226231,1.0419850409384988,4.496028505545301
1.4328116015552943,1.8652875844335117,4.736178111634099,0.8835408167590512,4.745263569697345
1.3629528319537074,1.8652875844335117,4.736178111634099,0.8835408167590512,4.937076509933534
1.294533684393379,1.9335162880026031,4.736178111634099,0.7642459964641456,5.049001118682444
1.2046597512801076,2.2882328131020198,4.834067568574877,0.7148638569756751,5.081450615513283
1.1658741517484514,2.4523051712575996,4.927607405009495,0.7008830688399292,5.375391139782995
0.935570795031936,2.6986466698792206,5.0753944961911195,0.6998908330185715,5.483173406094933
0.9032117250375461,2.6986466698792206,5.0753944961911195,0.6998908330185715,5.608772264111687
0.9032117250375461,2.6986466698792206,5.0753944961911195,0.6998908330185715,5.667111811740731
0.90270325214282,2.7560740751030366,5.0753944961911195,0.6853914219789736,5.680269242207856
0.90270325214282,2.8159752027472416,5.136898754177235,0.6408228317250223,5.688399024632111
0.90270325214282,2.8159752027472416,5.136898754177235,0.6408228317250223,5.745149901374079
0.90270325214282,2.7560740751030366,5.136898754177235,0.6408228317250223,5.753142024792557
0.8961515016865039,2.7560740751030366,5.090873479741523,0.6408228317250223,5.753142024792557
0.8927981269056601,2.7560740751030366,5.090873479741523,0.6408228317250223,5.753142024792557
0.8798100960453814,2.8159752027472416,5.090873479741523,0.6408228317250223,5.755150914602354
0.8558955899106367,2.8159752027472416,5.236768404958681,0.6408228317250223,5.755150914602354
0.8558955899106367,2.7325917611172486,5.266361466940131,0.6078317119438695,5.754535529524684
0.8425921914363844,2.7325917611172486,5.266361466940131,0.6078317119438695,5.754535529524684
0.8231718390405932,2.7325917611172486,5.236768404958681,0.6078317119438695,5.754535529524684
0.8125260911647276,2.7325917611172486,5.236768404958681,0.6078317119438695,5.754535529524684
0.7786667819451246,2.775444830272682,5.236768404958681,0.6078317119438695,5.754535529524684
0.7786667819451246,2.775444830272682,5.266361466940131,0.5841879581623107,5.767821193074341
0.7786667819451246,2.775444830272682,5.266361466940131,0.5841879581623107,5.769365273924367
0.7786667819451246,2.775444830272682,5.266361466940131,0.5841879581623107,5.769365273924367
0.7786667819451246,2.775444830272682,5.266361466940131,0.5841879581623107,5.769365273924367
0.7801823285332048,2.775444830272682,5.266361466940131,0.5841879581623107,5.769365273924367
0.7801823285332048,2.8239025048659694,5.266361466940131,0.6644033889591204,5.762203657180468
0.7801823285332048,2.775444830272682,5.3475816710540105,0.6663997929437301,5.762203657180468
0.7801823285332048,2.6035781896849195,5.218520969079913,0.7292317721577138,5.72802489119406
0.891551647954139,2.6035781896849195,5.218520969079913,0.7292317721577138,5.705792631376269
0.9040130492484759,2.6035781896849195,5.182945855236402,0.7292317721577138,5.6109913320179015
0.9812866003233679,2.6035781896849195,5.182945855236402,0.7862600597257312,5.5852084367825094
1.0654667862345248,2.5771619250195847,5.182945855236402,0.8037714616005756,5.55881787038401
1.1138726462798896,2.5361710769368604,5.218520969079913,0.7925118324073384,5.556182999747903
1.169103315011788,2.471074769782322,5.218520969079913,0.7925118324073384,5.548731658688123
1.3062296671430467,2.455374504742297,5.101940414221682,0.7925118324073384,5.413618116338857
1.4024066300698568,2.455374504742297,5.060774412060629,0.7925118324073384,5.286581932784142
1.4988839648631334,2.2169662469072176,4.832301999441445,0.7925118324073384,4.877411959382787
1.5163081332260924,2.17166196142222,4.832301999441445,0.7925118324073384,4.660864648099959
1.5163081332260924,2.125698615452279,4.832301999441445,0.7925118324073384,4.537188621390954
1.5481153121678286,1.96772079736281,4.753167587524106,0.7925118324073384,4.340800761248986
1.5617083420743592,1.9234013167037056,4.6399951570993965,0.7925118324073384,4.247460676729051
1.6778920419408123,1.6766029475041095,4.312604888029527,0.7925118324073384,4.011885016614661
1.8198901525386424,1.6766029475041095,4.234449015710344,0.8291074753437006,3.885346524296239
2.352834449998084,1.6766029475041095,4.234449015710344,1.1405622411182892,3.885346524296239
2.352834449998084,1.6766029475041095,4.234449015710344,1.3165101487353634,3.885346524296239
2.3784788960579117,1.6766029475041095,4.234449015710344,1.3165101487353634,3.885346524296239
2.3876748420875025,1.6766029475041095,4.181595633556412,1.5897420638342394,3.885346524296239
2.6358248062058576,1.6766029475041095,4.181595633556412,1.5897420638342394,3.885346524296239
2.655434701437309,1.513507796446423,4.181595633556412,1.5897420638342394,3.885346524296239
2.655434701437309,1.513507796446423,4.181595633556412,1.5897420638342394,3.7460118162352805
2.655434701437309,1.6349808823770877,4.234424491689262,1.5897420638342394,3.689672599371579
2.655434701437309,1.6349808823770877,4.066406454052892,1.5897420638342394,3.689672599371579
2.655434701437309,1.79364288112078,3.8967300498663477,1.5897420638342394,3.6603022638998493
2.655434701437309,1.79364288112078,3.244384407573327,1.5897420638342394,3.253860608377163
2.655434701437309,1.79364288112078,3.244384407573327,1.5897420638342394,3.209803475543624
2.809981159747513,1.8682594248766744,3.244384407573327,2.009882302956413,3.209803475543624
2.8564181558005255,1.9361893700170218,3.244384407573327,2.483028777050461,3.209803475543624
3.142999205365898,1.6349808823770877,3.244384407573327,2.659400416633815,3.209803475543624
3.1144058628319966,1.6349808823770877,3.244384407573327,2.608987276408156,3.209803475543624
3.1387214047451373,1.6349808823770877,3.244384407573327,2.5181703796402886,3.209803475543624
3.1714490908705204,1.8226870416760732,3.244384407573327,2.5181703796402886,3.209803475543624
3.1714490908705204,1.7290617582972254,3.244384407573327,2.5181703796402886,3.209803475543624
3.1144058628319966,1.7290617582971708,3.244384407573327,2.5181703796402886,3.253860608377163
3.1144058628319966,1.5446368768875374,3.4310077713787077,2.488983544085341,3.409366689388071
3.1144058628319966,1.5315121683189752,3.6909589043409166,2.488983544085341,3.801323786975466
3.1144058628319966,1.5315121683189752,3.873117930805975,2.488983544085341,3.9405695251927666
3.1387214047451373,1.5315121683189752,3.643516578949437,2.488983544085341,3.311123008715613
3.1387214047451373,1.5315121683189752,3.643516578949437,2.488983544085341,3.311123008715613
3.1387214047451373,1.5315121683189752,3.643516578949437,2.488983544085341,3.311123008715613
3.0678133032939665,1.5446368768875374,3.643516578949437,2.5181703796402886,3.311123008715613
3.0115928846386972,1.708661666928499,3.7119616801912017,2.285158574460273,3.311123008715613
3.0115928846386972,1.686964066284141,3.7119616801912017,2.2058351673448993,3.311123008715613
3.0115928846386972,1.686964066284141,3.7119616801912017,2.2058351673448993,3.311123008715613
2.9204513652303286,1.686964066284141,3.7119616801912017,2.2058351673448993,3.311123008715613
2.8562011982592996,1.708661666928499,3.7119616801912017,2.1020038240148446,3.311123008715613
2.74242973295739,1.7148619077415779,3.7119616801912017,2.0288363914006897,3.311123008715613
2.74242973295739,1.686964066284141,3.82372296424045,2.0273784200271594,3.9581533240922946
2.74242973295739,1.6127993936684428,4.261468574998575,2.0273784200271594,4.367929802751868
2.74242973295739,1.6127993936684428,4.261468574998575,1.8431162110861374,4.460959913391172
2.658192239726504,1.6127993936684428,4.261468574998575,1.8431162110861374,4.601447140012195
2.658192239726504,1.4947636240277589,4.347812234807355,1.8431162110861374,4.618085778069845
2.658192239726504,1.4441833467948868,4.735537639406006,1.8431162110861374,4.618085778069845
2.658192239726504,1.4441833467948868,4.735537639406006,1.8431162110861374,4.367929802751868
2.658192239726504,1.4441833467948868,4.3378654491909625,1.8431162110861374,4.081494815247859
2.658192239726504,1.4441833467948868,4.2488014430293,1.8431162110861374,3.859442754117827
2.7676897838260697,1.4441833467948868,4.2488014430293,1.9476150985173657,3.859442754117827
2.6990294409752833,1.4441833467948868,4.2488014430293,2.0273784200271594,3.859442754117827
2.5872508441002005,1.464545519217443,4.3378654491909625,1.8337647465153328,3.859442754117827
2.5872508441002005,1.464545519217443,4.347812234807355,1.8207745996497444,3.859442754117827
2.5872508441002005,1.464545519217443,4.3378654491909625,1.8337647465153328,3.859442754117827
2.731940812657468,1.464545519217443,4.3378654491909625,1.8337647465153328,3.859442754117827
2.412969494500709,1.6544327584603518,4.3378654491909625,1.7285342763988576,3.859442754117827
2.3104946289147827,2.050707180985589,4.3378654491909625,1.4559387469552159,3.859442754117827
2.3104946289147827,2.050707180985589,4.387125557762161,1.4559387469552159,3.859442754117827
2.3104946289147827,2.0623786643946045,4.387125557762161,1.4559387469552159,4.260277904696828
2.3104946289147827,2.050707180985589,4.668974544341176,1.4559387469552159,4.551711757892045
2.3104946289147827,1.9597394884663828,4.557033846518524,1.4559387469552159,4.419518245218889
2.250023763806743,1.9597394884663828,4.429009904553489,1.4559387469552159,4.169074442633406
2.250023763806743,1.9597394884663828,4.387125557762161,1.4559387469552159,3.9771168389968303
2.250023763806743,1.9597394884663828,4.148907774642528,1.4559387469552159,3.854583925103979
2.250023763806743,1.9597394884663828,4.148907774642528,1.4559387469552159,3.8242729578453973
2.250023763806743,1.9597394884663828,3.512978678696525,1.4559387469552159,3.6373302483013905
2.3607944005651724,1.9597394884663828,3.512978678696525,1.7747539222167341,3.6373302483013905
2.596007145165154,1.9597394884663828,3.512978678696525,2.1358058945921674,3.6373302483013905
2.7621120011268467,2.022687034699497,3.512978678696525,2.5763423125429017,3.6373302483013905
2.995268237661065,1.9597394884663828,3.512978678696525,2.5008703702073247,3.6373302483013905
2.995268237661065,2.022687034699497,3.512978678696525,2.521030083286367,3.6373302483013905
3.012058231885897,2.0332900918742065,3.512978678696525,2.521030083286367,3.5009678411153002
3.0526188128151848,2.0332900918742065,3.512978678696525,2.521030083286367,3.4154557078611787
3.012058231885897,2.0332900918742065,3.512978678696525,2.521030083286367,3.33355370409422
3.012058231885897,1.9102018727977823,3.512978678696525,2.521030083286367,3.33355370409422
3.012058231885897,1.9102018727977823,3.586978686791711,2.521030083286367,3.2271486251847845
3.012058231885897,1.9102018727977823,3.838629045518987,2.521030083286367,3.264424628778844
3.012058231885897,1.9102018727977823,3.2860647128779,2.521030083286367,3.188382705917644
3.23483336563725,1.9102018727977823,3.2860647128779,2.521030083286367,3.188382705917644
3.209086512783145,1.9102018727977823,3.2860647128779,2.521030083286367,3.188382705917644
2.9588441512522885,2.100539782076373,3.2860647128779,2.0623903969474258,3.188382705917644
2.820132468712904,2.1712346807861156,3.2860647128779,1.921313434615927,3.188382705917644
2.5613407651650424,2.1712346807861156,3.2860647128779,1.619181031547115,3.188382705917644
2.5613407651650424,2.1712346807861156,3.2860647128779,1.619181031547115,3.188382705917644
2.5613407651650424,2.1963770014888966,3.2860647128779,1.619181031547115,3.188382705917644
2.201519166991842,2.275175436815173,3.2860647128779,1.619181031547115,3.188382705917644
2.201519166991842,2.362014134014141,3.2860647128779,1.619181031547115,3.140005475984637
2.201519166991842,2.362014134014141,3.0141448442009735,1.619181031547115,2.9856525727707375
2.201519166991842,2.362014134014141,2.7907005030853353,1.619181031547115,2.770142110332737
2.1433077391587023,2.362014134014141,2.171193320588937,1.619181031547115,1.9735922863839857
2.0617320878108623,2.362014134014141,2.039472123072472,1.619181031547115,1.610662405520571
2.207708911186765,2.3834482275921816,2.039472123072472,2.046436484009266,1.610662405520571
2.207708911186765,2.624575590915218,2.039472123072472,2.465544222135258,1.610662405520571
2.207708911186765,2.8799570581183,2.039472123072472,3.16564706995862,1.610662405520571
2.015174087367704,2.9343524950782793,2.0257779643776708,4.044080478566169,1.4818361730163534
1.8078342422871483,3.1242509344758522,1.779448846554956,4.413715790678774,1.4619753383125398
1.8605866499830364,3.25690161977391,1.779448846554956,4.8225659408701675,1.4619753383125398
1.805795894910756,3.3202364166379614,1.6954739167811548,5.074912918012264,1.4619753383125398
1.614421163964378,3.464979512243791,1.6843730550629281,5.273495906921486,1.374406750718613
1.4687665913215397,3.464979512243791,1.6627775520361818,5.273495906921486,1.3671859164605302
1.4687665913215397,3.5265128612775545,1.281884464888499,5.273495906921486,1.3671859164605302
1.4687665913215397,3.4275169326977335,1.1737288785903415,5.207043426127012,1.4099650489959534
1.4687665913215397,3.417340586445467,0.9959157308620844,4.925151738805659,1.4099650489959534
1.4687665913215397,3.3489005895139115,0.9959157308620844,4.481646560691657,1.4099650489959534
1.4687665913215397,3.1337096799724713,0.9959157308620844,3.5405679050198806,1.4099650489959534
1.4687665913215397,3.006444440227059,0.9959157308620844,2.36517944261929,1.4099650489959534
1.3551676207490355,2.8453375572172104,0.9959157308620844,1.4796773209224883,1.4099650489959534
1.3551676207490355,2.8453375572172104,0.9959157308620844,1.4796773209224883,1.4099650489959534
1.3551676207490355,2.8453375572172104,0.9959157308620844,1.4796773209224883,1.4099650489959534
1.3235400256874499,2.8453375572172104,0.9959157308620844,1.315312731454715,1.9309026517331507
1.2001947073966015,2.7872850916358116,1.6186836766308808,1.0858515556445423,2.6677288527153973
1.1134055746468674,2.6253025136361927,2.5675852282208065,0.7074132872766187,3.1655872678708956
1.042409137791195,2.492754790386039,3.394432441679778,0.7074132872766187,3.8820514457766655
0.9880872369432474,2.6382200026161144,4.3324946469746655,0.7074132872766187,4.644146352187479
0.9152207770510857,2.8453375572172104,5.032419681740959,0.7074132872766187,5.217294019840597
0.8232231085595436,2.8453375572172104,5.25463550453841,0.7074132872766187,5.504236951435511
0.6994940623778141,2.8453375572172104,5.29260672121931,0.7015128524196182,5.641286320305852
0.6383617873512762,2.871486659762161,5.29260672121931,0.7015128524196182,5.6698877971251695
0.4869352406496332,2.871486659762161,5.29260672121931,0.7015128524196182,5.732480496258311
0.4869352406496332,2.871486659762161,5.29260672121931,0.7015128524196182,5.859569879903053
0.4695508105705914,2.871486659762161,5.29260672121931,0.7015128524196182,5.859569879903053
0.4536001578858495,2.937287972849502,5.29260672121931,0.7710360743064042,5.860002491713463
0.4536001578858495,2.941048003183557,5.29260672121931,0.7882852608131165,5.860002491713463
0.4536001578858495,2.9905398220255015,5.295658800418199,0.7590652767554594,5.866775202419672
0.4536001578858495,2.941048003183557,5.295658800418199,0.7388451468957608,5.894524220481289
0.4536001578858495,2.941048003183557,5.295658800418199,0.7388451468957608,5.894524220481289
0.4663363334975773,2.941048003183557,5.306086914440497,0.7388451468957608,5.894524220481289
0.4695508105705914,2.941048003183557,5.306086914440497,0.7388451468957608,5.885875938353649
0.4869352406496332,2.937287972849502,5.306086914440497,0.7359449947563499,5.857999541147015
0.5193120933582227,2.9270416442031464,5.306086914440497,0.6688192355777036,5.857999541147015
0.5193120933582227,2.859788748868042,5.295658800418199,0.6688192355777036,5.8565557467618765
0.5256163613757052,2.859788748868042,5.233687625843476,0.6688192355777036,5.8565557467618765
0.5965792365258478,2.859788748868042,5.154685044161547,0.6688192355777036,5.8565557467618765
0.6044154447305544,2.9112576698738324,5.079620948356002,0.6688192355777036,5.824534774559304
0.6098729074090397,2.9112576698738324,5.079620948356002,0.6688192355777036,5.824534774559304
0.6640957760747859,2.8362203239356765,5.079620948356002,0.6688192355777036,5.817781945459432
0.6640957760747859,2.8362203239356765,4.940099689461012,0.6688192355777036,5.817781945459432
0.6640957760747859,2.8362203239356765,4.940099689461012,0.6688192355777036,5.817781945459432
0.6640957760747859,2.8362203239356765,4.940099689461012,0.7684772566702271,5.817781945459432
0.5581709423923004,2.9112576698738324,4.940099689461012,0.7644764831140851,5.856820838450861
0.5581709423923004,2.9112576698738324,4.940099689461012,0.7684772566702271,5.860661809807267
0.5581709423923004,2.9112576698738324,4.940099689461012,0.6847764405959327,5.860661809807267
0.507659620115286,2.851627748864635,5.075060001488374,0.6847764405959327,5.85225114306951
0.5062885342168171,2.851627748864635,5.075060001488374,0.6847764405959327,5.85225114306951
0.4935304193135819,2.851627748864635,5.157357451518414,0.6847764405959327,5.860661809807267
0.445632055734202,3.066129890163421,5.194592304613424,0.6847764405959327,5.899385674208836
0.3236489644399552,3.07704128816215,5.222913470855622,0.6847764405959327,5.911139448578522
0.3236489644399552,3.07704128816215,5.326527078011049,0.6847764405959327,5.844649598873857
0.3236489644399552,3.07704128816215,5.399915332522368,0.6847764405959327,5.468364536746232
0.3236489644399552,2.937677469883446,4.822435366286129,0.6847764405959327,4.300024256417339
0.3236489644399552,2.937677469883446,3.4526146897418823,0.813652712417193,3.0524168285508746
0.3236489644399552,3.0860194411842006,2.456434772191752,0.8776345406715348,2.290687500208676
0.30340009453180816,3.2081565937559287,1.6599553201723474,0.9898030472234165,1.8752971897849773
0.2950577454112072,3.2717865761272718,1.2300054006120174,1.0798018412811,1.629384452581627
0.24929933346472602,3.2777667536577972,0.9106247380912684,1.1292144398636241,1.471564346629705
0.24929933346472602,3.2777667536577972,0.7530671807310635,1.1994084715175988,1.4242183785578084
0.2950577454112072,3.3749699125729675,0.6861302400820412,1.2864489247307662,1.4224656937891689
0.352652126027905,3.5966082614146946,0.6240914287867516,1.6984215122118718,1.4224656937891689
0.352652126027905,4.036573182320822,0.5282742548247856,2.8322761701335195,1.4224656937891689
0.352652126027905,4.103171690552299,0.5161073748097704,4.3561005660087115,1.4224656937891689
0.352652126027905,4.108871292231793,0.37165359245693325,5.3508964545615685,1.4224656937891689
0.352652126027905,4.1364859822232845,0.34363731707809625,5.824684359124758,1.4224656937891689
0.5468670940611007,4.188295148226634,0.34363731707809625,5.994528186888642,1.4224656937891689
0.6257381996369623,4.159254692332762,0.34363731707809625,6.01072496246507,1.4242183785578084
0.7651545703176659,4.159254692332762,0.2875056636759956,6.01072496246507,1.463724615062893
0.9586669734611161,4.159254692332762,0.2875056636759956,6.028088169903525,1.4639099829399522
1.0696751026242055,4.159254692332762,0.24710805879416103,6.028088169903525,1.463724615062893
1.1205070730398554,4.108871292231793,0.24710805879416103,6.0074185730554195,1.463724615062893
1.1362725139233678,4.006650233878757,0.24710805879416103,5.9778699296011615,1.2347129422578589
1.1362725139233678,3.9889131825257893,0.24710805879416103,5.965206106453481,1.0622795289745806
1.1205070730398554,3.9889131825257893,0.25627778639474,5.965206106453481,1.0622795289745806
1.1205070730398554,3.9889131825257893,0.25627778639474,5.965206106453481,1.0622795289745806
1.0696751026242055,4.006650233878757,0.25627778639474,5.9778699296011615,1.0622795289745806
0.8269877274641633,4.006650233878757,0.25627778639474,5.9778699296011615,1.0622795289745806
0.8117346951594567,4.006650233878757,0.25627778639474,5.970448474303801,1.0622795289745806
0.8010900263259351,4.006650233878757,0.2895702090580664,5.970448474303801,1.0622795289745806
0.8010900263259351,4.006650233878757,0.3674084425126813,5.970448474303801,1.0622795289745806
0.8010900263259351,4.027713691275264,0.47073245183088647,5.9778699296011615,1.0622795289745806
0.8010900263259351,4.006905306454713,0.49166931374651923,5.965206106453481,1.1000570770351747
0.8010900263259351,4.006905306454713,0.4960005130630675,5.918281583795491,1.2495163509791842
0.8010900263259351,4.006905306454713,0.4960005130630675,5.8512710537911925,1.2980176993847248
0.8300904714607298,3.79294806875209,0.5596756453609968,5.825406387908917,1.3057751110425302
1.0297166787475218,3.4287130104745205,0.5596756453609968,5.442384264939324,1.3057751110425302
1.5107139016512272,3.4287130104745205,0.5596756453609968,5.402581005617775,1.3057751110425302
1.8485958125952595,3.4120325779784166,0.5705706614660526,5.234531400160607,1.3845930670283682
1.9367161678059792,3.307427338204179,0.7331630580753148,5.189380897514184,1.3577251280041551
2.1590984450506854,3.0742387212078444,0.7814061984453065,5.162257510673602,1.3577251280041551
2.18573230499195,3.0709491686985757,1.0567419263354227,5.162257510673602,1.239353787579192
2.4352459153071764,3.0709491686985757,1.1529725368821055,5.11307210873938,1.239353787579192
2.4964777450108944,3.0709491686985757,1.4810374468162597,5.058315485783483,1.239353787579192
2.4964777450108944,3.0709491686985757,1.6794992690904553,5.058315485783483,1.1878210357583598
2.4787220918137463,3.0245249172246518,1.7667926158394718,5.058315485783483,1.16399106771171
2.4787220918137463,3.0245249172246518,1.7667926158394718,5.058315485783483,1.16399106771171
2.4136909851931367,3.0245249172246518,1.7310175351196189,5.058315485783483,1.16399106771171
2.4136909851931367,3.0245249172246518,1.7310175351196189,5.045839316688271,1.16399106771171
2.4136909851931367,3.100395823116015,1.7310175351196189,4.979938981978405,1.16399106771171
2.4136909851931367,3.0709491686985757,1.7310175351196189,4.979938981978405,1.16399106771171
2.4136909851931367,3.0709491686985757,1.7310175351196189,4.979938981978405,1.1786636030399607
2.310745148034389,2.950634942428866,1.7310175351196189,4.979938981978405,1.1786636030399607
2.262398891170354,2.950634942428866,1.7310175351196189,4.979938981978405,1.1786636030399607
2.262398891170354,2.950634942428866,1.7310175351196189,5.075857517871198,1.1786636030399607
2.203503862225291,2.950634942428866,1.7310175351196189,5.075857517871198,1.2025822000997208
2.203503862225291,3.1491933139572295,1.770365677072758,5.075857517871198,1.2223963651633099
2.175672341409834,3.1457714506469108,1.7197542574772609,5.075857517871198,1.2223963651633099
2.175672341409834,3.1457714506469108,1.6726376191554297,5.075857517871198,1.2504905090541587
2.05779965881691,3.1457714506469108,1.374434418559429,5.241922052886062,1.2223963651633099
2.0266917554723776,3.1457714506469108,1.374434418559429,5.329855281753598,1.1030212825328871
1.9745978987944428,3.4534106713894883,1.2896493461089957,5.353713666061632,1.1030212825328871
1.5141302072896428,3.4534106713894883,1.1904912106114816,5.40030964528055,1.1030212825328871
1.3020334721702331,3.5542763075571733,1.1889062821615604,5.448443288580875,0.8993306168716331
1.174777766440628,3.5542763075571733,1.1354936879320483,5.462964095848507,0.8869933782336966
1.167884928094787,3.5542763075571733,0.8024876414396742,5.537538844650445,0.8869933782336966
1.167884928094787,3.5542763075571733,0.8024876414396742,5.6360247600874755,0.8869933782336966
1.167884928094787,3.6685447787755128,0.7806911042021107,5.724991026402905,0.8869933782336966
1.167884928094787,3.6685447787755128,0.7542257808367602,5.724991026402905,0.8669978330992213
1.167884928094787,3.768738787816527,0.6210564288749618,5.748269890607361,0.8669978330992213
1.1218968286328013,3.768738787816527,0.6210564288749618,5.866239620965295,0.8669978330992213
1.1218968286328013,3.768738787816527,0.6210564288749618,5.885186438976745,0.8669978330992213
1.174777766440628,3.768738787816527,0.6210564288749618,5.885186438976745,0.8669978330992213
1.1770754696763557,3.84625118745871,0.6210564288749618,5.885186438976745,0.8669978330992213
1.273123760887159,3.8647282394605607,0.6344762418798507,5.850575900720653,0.8669978330992213
1.2938216247789855,3.84625118745871,0.7349571567946516,5.845544798870317,0.9750114741928473
1.3029789613792702,3.84625118745871,0.7349571567946516,5.845544798870317,0.8319879086093458
1.3976037583335739,3.84625118745871,0.7349571567946516,5.728521745552088,0.8319879086093458
1.4028532538642373,3.84625118745871,0.7349571567946516,5.637077641811948,0.8319879086093458
1.4028532538642373,3.52138464290156,0.7349571567946516,5.376460248999281,0.9750114741928473
1.4153602873163442,3.52138464290156,0.8084370166488256,5.322640717267207,0.9750114741928473
1.439788292063133,2.804092728976928,0.9696368134306743,5.082361865771305,0.9750114741928473
1.6187548504248552,2.804092728976928,1.0268635737460499,4.812729939519668,0.9750114741928473
1.9098139755254324,2.4160284444352693,1.0268635737460499,4.631781325529714,0.9750114741928473
2.070492808143807,2.4160284444352693,1.112912911695683,4.533678095692806,1.0034540541623187
2.4394068386845618,2.4160284444352693,1.1538742366583863,4.533678095692806,1.0059347702049277
2.4394068386845618,2.4160284444352693,1.2519112541715813,4.533678095692806,1.4295791493721453
2.6690757904869424,2.4160284444352693,1.6099322070895228,4.533678095692806,1.5914543223023228
2.773651622332977,2.4160284444352693,1.855735600137318,4.533678095692806,1.792746644283675
2.83131073758526,2.4160284444352693,1.9805601203975227,4.533678095692806,1.845930002395844
2.83131073758526,2.4160284444352693,2.1358048140744033,4.519710620837997,1.9681819241933003
2.83131073758526,2.491901575066609,2.32008507986196,4.443099617508475,1.9833481279655274
2.83131073758526,2.6188093941133292,2.181649507971466,4.443099617508475,1.9683721880706317
2.9651673044492166,2.7245985189654403,2.181649507971466,4.443099617508475,1.9683721880706317
3.076752969913677,2.7245985189654403,2.181649507971466,4.519710620837997,1.9683721880706317
3.076752969913677,2.259443836247767,2.181649507971466,3.754118450775783,1.9683721880706317
3.13727034377321,2.074268758260869,2.181649507971466,3.441811139567606,1.9833481279655274
3.13727034377321,2.057956358293369,2.390675811670049,3.168120721569844,2.054296491613925
3.1656604815089544,2.0517510686376204,2.4495080778987015,3.1581420312810984,2.1101264850789883
3.2152992101861098,2.0517510686376204,2.6206217592046848,3.0293024328329605,2.493268790079653
3.13727034377321,2.0517510686376204,2.6206217592046848,2.53143845481158,2.503950013145553
3.13727034377321,2.0517510686376204,2.6206217592046848,2.078693266822075,2.503950013145553
2.1640309637103705,2.0517510686376204,2.6206217592046848,1.6625471774315999,2.503950013145553
1.949232209630792,2.0517510686376204,3.1183067658356425,1.3021764732908023,2.5526754476568017
1.5863052466914649,2.0517510686376204,3.5297654255507855,1.1868283249614524,3.684559104181193
1.3972259754460463,2.0517510686376204,4.0913931764163864,1.0953124159859657,4.28787126731577
1.2658889735266121,2.104183570319536,4.405572707318387,0.9997951449322408,4.315217201176544
1.0976291985639477,2.3431180848478363,4.522318843306706,0.7795142563463501,4.362172677686978
0.9632780562283372,2.491425099037303,4.614417480422927,0.5710998165706553,4.728555231036209
0.9244851960049855,2.534209359910472,4.75223638603673,0.5710998165706553,5.303168823637149
0.9091924352872542,2.534209359910472,4.813004530033914,0.5710998165706553,5.592922324150687
0.9037243484437225,2.534209359910472,4.813004530033914,0.5710998165706553,5.7057474014053335
0.843452712403211,2.6258620113244375,4.854408855353233,0.5710998165706553,5.708627646092589
0.7963114922946533,2.733243333112694,5.1302489219815195,0.5710998165706553,5.722241912169836
0.7704637004499848,2.733243333112694,5.271019530179184,0.5710998165706553,5.763470725827796
0.735241681252191,2.733243333112694,5.271019530179184,0.5710998165706553,5.785826899375128
0.735241681252191,2.733243333112694,5.142393883889981,0.5710998165706553,5.785826899375128
0.735241681252191,2.733243333112694,5.142393883889981,0.7967873766406489,5.785826899375128
0.735241681252191,2.818039126354828,5.142393883889981,0.7967873766406489,5.802152005634678
0.735241681252191,2.8402475957128894,5.271019530179184,0.7967873766406489,5.802152005634678
0.735241681252191,2.8402475957128894,5.271019530179184,0.7675613506206453,5.802152005634678
0.735241681252191,2.818039126354828,5.271019530179184,0.7675613506206453,5.771834124737302
0.735241681252191,2.818039126354828,5.271019530179184,0.7675613506206453,5.771834124737302
0.8654928044185946,2.818039126354828,5.20105897305492,0.7675613506206453,5.733049570677325
0.8654928044185946,2.818039126354828,5.20105897305492,0.7675613506206453,5.733049570677325
0.9309246340921312,2.8402475957128894,5.20105897305492,0.7675613506206453,5.733049570677325
0.9713658184863623,2.6969205057916312,5.224244646440054,0.7675613506206453,5.733049570677325
1.0859347975184908,2.6822611144161277,5.224244646440054,0.7675613506206453,5.727184303652414
1.0893559570268507,2.6822611144161277,5.20105897305492,0.7675613506206453,5.603392192091063
1.1075991660431894,2.6822611144161277,5.139374418078264,0.7952609797821262,5.596559847434697
1.1144534735494105,2.6969205057916312,5.139374418078264,0.8040730518330277,5.596559847434697
1.1247806943224237,2.7137749116611176,5.20105897305492,0.8086384182882307,5.603392192091063
1.1416252727988323,2.7137749116611176,5.20105897305492,0.8125521587199358,5.596559847434697
1.2203403564323148,2.6969205057916312,5.20105897305492,0.8125521587199358,5.596559847434697
1.2353865099215016,2.6452287954467524,5.149971853477136,0.8125521587199358,5.514578093114654
1.3095196751724583,2.6452287954467524,5.149971853477136,0.8634653698761429,5.446850018592851
1.3597748431352161,2.64202878020166,5.149971853477136,0.8634653698761429,5.446850018592851
1.3721680397741183,2.474959065722816,5.149971853477136,0.8634653698761429,5.3904338393168025
1.422255901102814,2.397693593351673,5.1380284659293745,0.8900478276478819,5.384672147560836
1.422255901102814,2.397693593351673,5.074138579564071,0.8900478276478819,5.378367571016801
1.422255901102814,2.397693593351673,5.074138579564071,0.8900478276478819,5.22232967867073
1.5572376752167776,2.397693593351673,5.074138579564071,0.8900478276478819,5.044836508916963
1.6444714677908043,2.3423960813881095,5.074138579564071,0.8900478276478819,4.93658189374838
1.66232109260995,2.1434249828341203,5.074138579564071,0.8907722531253823,4.93658189374838
1.7243858098328435,2.0248169309118222,4.97893479801537,0.8907722531253823,4.846521676305845
1.782811639954469,2.0248169309118222,4.97893479801537,0.8907722531253823,4.846521676305845
1.782811639954469,2.0248169309118222,4.598470726801101,0.8907722531253823,4.79928292246496
2.0255318638450763,1.936982251606626,4.598470726801101,1.17773348977835,4.633393960825136
2.0404343929535944,1.936982251606626,4.562748175901989,1.3817812147132016,4.455278319396692
2.088948988908005,1.936982251606626,4.537187036455536,1.5027078122206323,4.288039013039744
2.449032894617628,1.907540560494121,4.482546296812705,1.6823164622760072,4.1297079484218155
2.535867533274761,1.907540560494121,4.077721353555186,1.6838600259613006,4.0765921533329275
2.535867533274761,1.7521518808578238,3.8967727885121897,1.6838600259613006,3.5400752386089827
2.535867533274761,1.7521518808578238,3.8967727885121897,1.6838600259613006,3.5400752386089827
2.6432328461252323,1.907540560494121,3.8967727885121897,1.891474221705141,3.5400752386089827
2.748145485602536,1.9104999741863185,3.8967727885121897,2.148665791389685,3.5400752386089827
2.774852174311497,1.9104999741863185,3.8967727885121897,2.148665791389685,3.5400752386089827
2.774852174311497,1.9104999741863185,3.8967727885121897,2.2869546880050375,3.5400752386089827
2.774852174311497,1.995775266116745,3.8967727885121897,2.2869546880050375,3.5400752386089827
2.8675855928773735,1.995775266116745,3.8967727885121897,2.2869546880050375,3.5400752386089827
2.794899923688518,1.995775266116745,3.8967727885121897,2.148665791389685,3.5400752386089827
2.702309592796856,1.9987490225210414,3.8967727885121897,2.1063062090323754,3.5400752386089827
2.656355120554943,1.9987490225210414,3.9398398778599573,1.6255915451794443,3.8391905546878555
2.327131349526558,2.046573610248533,4.35035669950886,1.5423456812681535,4.025531685753008
2.327131349526558,2.046573610248533,4.501323180240026,1.4212594480812173,4.18389120356432
2.20291025335802,2.04351349134716,4.501323180240026,1.4212594480812173,4.18389120356432
2.20291025335802,1.8302214148098295,4.501323180240026,1.4212594480812173,4.18389120356432
2.20291025335802,1.8015545351632238,4.501323180240026,1.4212594480812173,4.18389120356432
2.20291025335802,1.6003740901560846,4.332650295452622,1.4212594480812173,3.980605433579473
2.20291025335802,1.5055613182385712,4.066933226264897,1.4212594480812173,3.932450448674182
2.20291025335802,1.2485295366055547,3.5466142770730196,1.4212594480812173,3.1816208922048412
2.20291025335802,1.2485295366055547,3.054494686364299,1.4212594480812173,2.548906219681892
2.2416068140086787,1.2485295366055547,3.054494686364299,1.543568294000027,2.391700629583421
2.3180367425565356,1.2485295366055547,3.054494686364299,2.1286019803089347,2.391700629583421
2.682409227641879,1.2485295366055547,3.0466288316900774,2.356162716368189,2.391700629583421
2.808192678843305,1.2485295366055547,2.797967103957387,2.5608580859786034,2.391700629583421
2.9294065153220497,1.2485295366055547,2.7066877177502886,2.798875979124664,2.391700629583421
3.111602006188133,1.2485295366055547,2.7066877177502886,2.798875979124664,2.391700629583421
2.8083214145385607,1.9137830443613557,2.7066877177502886,2.817603314910927,2.391700629583421
2.6892389947790805,1.9801656201893607,2.7066877177502886,1.9399702345859204,2.391700629583421
2.6823692543211832,1.9801656201893607,2.7066877177502886,1.611737477434256,2.391700629583421
2.6823692543211832,1.9822692391977728,2.7066877177502886,1.611737477434256,2.4837558834447804
2.6823692543211832,2.070179280125791,3.0466288316900774,1.611737477434256,3.1388680610023174
2.6823692543211832,2.070179280125791,3.160468015071264,1.611737477434256,3.355373664025987
2.6823692543211832,2.070179280125791,3.895581230947845,1.611737477434256,3.6308287906370937
2.653231695194468,2.1850454073825407,3.9414540650098973,1.611737477434256,3.8609431660333677
2.653231695194468,2.206624420485582,4.2240204506654715,1.611737477434256,4.320694939331366
2.653231695194468,2.206624420485582,4.646669419503131,1.611737477434256,4.416105533096459
2.653231695194468,2.206624420485582,4.646669419503131,1.611737477434256,4.345316855809159
2.653231695194468,2.206624420485582,4.646669419503131,1.611737477434256,4.345316855809159
2.641785057468785,2.140453233848608,4.646669419503131,1.848350032243646,4.345316855809159
2.641785057468785,2.140453233848608,4.646669419503131,1.789446852913736,4.345316855809159
2.1592314802396815,2.140453233848608,4.646669419503131,1.6844917226471554,4.345316855809159
2.0492178441633673,2.140453233848608,4.66411070441965,1.4867034545313687,4.485995960004746
2.0492178441633673,2.140453233848608,4.66411070441965,1.4576157534451208,4.576239952717731
2.0405739600102755,2.140453233848608,4.66411070441965,1.4576157534451208,4.416105533096459
2.0405739600102755,2.0936290946733087,4.545863084008902,1.4576157534451208,4.37819813826259
2.0405739600102755,2.049513218711486,4.372680919343993,1.4576157534451208,4.286661529716616
2.0405739600102755,1.8871240311777315,4.281359910918476,1.4576157534451208,4.018844089627216
2.0405739600102755,1.8615739842504542,4.209415500748846,1.4576157534451208,3.8648456735162493
2.0405739600102755,1.8025169269219798,3.8299050587816663,1.4576157534451208,3.739219560006547
2.0405739600102755,1.6880584486988723,3.571182127165871,1.4867034545313687,3.2321006991814483
2.0492178441633673,1.6880584486988723,3.571182127165871,1.6844917226471554,3.2321006991814483
2.0739229365225316,1.6880584486988723,3.571182127165871,2.2324791680957947,3.2321006991814483
2.38098751629174,1.6880584486988723,3.571182127165871,2.8839462503383104,3.2321006991814483
3.056765482844344,1.6880584486988723,3.571182127165871,3.059105830854437,3.0882311832377614
3.6263408918084505,1.6880584486988723,3.302581417783009,3.114708587390187,3.006494337447416
3.851314255538264,1.6880584486988723,3.302581417783009,3.133541572219417,3.006494337447416
3.7443832112336533,1.6880584486988723,3.302581417783009,3.1548977322019844,3.006494337447416
3.1489973737352686,1.6970445002556138,3.302581417783009,2.795838262542538,3.006494337447416
2.9736867565014156,1.7427269296550643,3.4985847974056155,2.5802447536423636,3.006494337447416
2.9736867565014156,1.8259309425188417,3.5076854358598424,2.2576959212400376,3.006494337447416
2.9736867565014156,1.8786186709252177,3.4985847974056155,2.2576959212400376,3.1917657821915406
3.1489973737352686,1.8786186709252177,3.4985847974056155,2.2576959212400376,3.1917657821915406
2.838155678878537,1.8817799962333719,3.4985847974056155,2.1753571819066813,3.1917657821915406
2.7357978916794585,1.8817799962333719,3.4985847974056155,2.1250725091530303,3.1917657821915406
2.6806098709207515,1.8259309425188417,3.5076854358598424,2.0331592971019825,3.399399420677786
2.6806098709207515,1.785860797262195,3.7733534629870635,2.0331592971019825,4.069002638446473
2.6806098709207515,1.785860797262195,4.233119995707807,2.0331592971019825,4.120861181952768
2.6806098709207515,1.785860797262195,3.627796221122297,2.0331592971019825,3.679900360970001
2.6547402182785556,1.785860797262195,3.485027025248227,2.0331592971019825,3.0433527095937962
2.6547402182785556,1.8817799962333719,3.485027025248227,2.081181350190577,3.0433527095937962
2.6547402182785556,1.9557930848405216,3.4628416513000015,2.081181350190577,2.990749744152821
2.6547402182785556,1.9557930848405216,3.4628416513000015,2.081181350190577,2.8867513459483107
2.6547402182785556,1.9557930848405216,3.1234517143780693,2.081181350190577,2.6570920436706658
2.7871860612740162,1.9557930848405216,3.0130324600554683,2.081181350190577,2.6020824993331226
2.8171256863992538,2.0575557405196987,3.0130324600554683,2.1187431844389875,2.6020824993331226
2.989463302202281,2.0575557405196987,3.0130324600554683,2.8550213831976987,2.6020824993331226
3.3772184357983277,2.228090842481881,3.0130324600554683,3.561138056949303,2.6020824993331226
3.3772184357983277,2.248189252821827,2.9062787262363265,3.719384404088211,2.6020824993331226
3.479148299374694,2.248189252821827,2.9062787262363265,3.719384404088211,2.3696146960769835
3.44259593302646,2.248189252821827,2.9062787262363265,3.719384404088211,2.342588806052169
3.2903661631682297,2.3157080304598803,2.9062787262363265,3.719384404088211,2.342588806052169
3.0589500981731326,2.3157080304598803,2.9062787262363265,3.719384404088211,2.321653951361614
2.899968332875282,2.3157080304598803,2.748335794690515,3.719384404088211,2.2654730529839777
2.686690371556531,2.3157080304598803,2.2188061345449297,3.719384404088211,2.0613858527822875
2.166615763102563,2.3157080304598803,2.081369054628346,3.719384404088211,1.9288618642260944
1.920263534228611,2.3157080304598803,1.9269500997577325,3.719384404088211,1.8409766951065742
1.6432167632155947,2.44948974278321,1.8882578054131163,3.895755962327742,1.6387583295266175
1.6001457664385432,2.6037719170164526,1.7672147563010594,4.3096631915841845,1.5122396339421216
1.6001457664385432,2.7195264615411303,1.4569889520760795,4.7589188424705355,1.3679056844092508
1.6001457664385432,3.2731876736450523,1.4475003501372636,4.828819368580259,1.3679056844092508
1.6001457664385432,3.2731876736450523,1.2918021519709042,4.8392272462792745,1.3679056844092508
1.6001457664385432,3.3572025100908705,1.2918021519709042,4.72544733842812,1.3679056844092508
1.6001457664385432,3.3426040196543783,1.2918021519709042,4.167729134811804,1.3679056844092508
1.6001457664385432,3.09878716715319,1.2918021519709042,3.125958071154953,1.3679056844092508
1.4329046983243825,3.0053897586629787,1.2918021519709042,1.999445277195704,1.427697577771554
1.4329046983243825,2.8415735393169994,1.2918021519709042,1.6490548783403232,1.427697577771554
1.4329046983243825,2.8415735393169994,1.2918021519709042,1.6490548783403232,1.427697577771554
1.2163815327658425,2.8415735393169994,1.2918021519709042,1.4072371458318444,1.5885025621724265
1.4329046983243825,2.8415735393169994,1.390530923373364,1.345029116980381,2.0085146360292017
1.1496066540324947,2.779521401296521,2.3126050058188756,0.9905363330714057,2.833923204613353
0.9863331662021557,2.7487608738106393,2.9842798296914195,0.9236736670843027,3.655912132304398
0.8669174574236848,2.7487608738106393,3.8575130772894473,0.881852498921705,4.186024301083002
0.7804899034472746,2.8415735393169994,4.743195164805205,0.881852498921705,4.883814298340775
0.7201140985554126,2.935111093856644,5.171808856876799,0.881852498921705,5.452420314648131
0.681581165041189,2.935111093856644,5.2908849707569745,0.7514775323125833,5.5781408363542795
0.5169238493049779,2.931297745567261,5.2908849707569745,0.7377477931504158,5.665666501925717
0.5140003910929072,2.931297745567261,5.2908849707569745,0.7377477931504158,5.750976102867683
0.4862558989810704,2.9042773813679057,5.1860685054238385,0.7377477931504158,5.852584589709915
0.4838499716096242,2.9042773813679057,5.171808856876799,0.7377477931504158,5.86983628055098
0.4809634249504656,2.9042773813679057,5.1860685054238385,0.7377477931504158,5.879609319051811
0.4518637840923554,2.931297745567261,5.210615088978735,0.7377477931504158,5.884926457502809
0.44492132173110627,2.98663666482275,5.216370288208961,0.7514775323125833,5.908378970697122
0.42144347134045346,2.98663666482275,5.216370288208961,0.7787905570175812,5.908378970697122
0.42144347134045346,2.98663666482275,5.2302845587108635,0.7787905570175812,5.908378970697122
0.42144347134045346,2.98663666482275,5.2302845587108635,0.7787905570175812,5.908378970697122
0.42144347134045346,2.98663666482275,5.2302845587108635,0.7787905570175812,5.906610412226037
0.42144347134045346,2.972196495556534,5.2302845587108635,0.7787905570175812,5.877395565836347
0.42144347134045346,2.927025710931676,5.2302845587108635,0.7251317973704388,5.868899351765568
0.42144347134045346,2.85207375000164,5.216370288208961,0.7251317973704388,5.868899351765568
0.4242469177751005,2.7781006404500377,5.216370288208961,0.7251317973704388,5.825240218605095
0.5180025556391377,2.7781006404500377,5.216370288208961,0.7251317973704388,5.786428277271651
0.5462287854084913,2.7781006404500377,5.19820327227576,0.7251317973704388,5.786428277271651
0.5462287854084913,2.7781006404500377,5.040852425256745,0.7251317973704388,5.786428277271651
0.5462287854084913,2.7781006404500377,5.040852425256745,0.7251317973704388,5.786428277271651
0.5462287854084913,2.7781006404500377,5.040852425256745,0.7251317973704388,5.786428277271651
0.4898961007466651,2.7781006404500377,5.040852425256745,0.7251317973704388,5.786428277271651
0.2808426267701265,2.7781006404500377,5.040852425256745,0.829123462236006,5.786428277271651
0.2796322219126774,2.7781006404500377,5.040852425256745,0.9537717228534742,5.825240218605095
0.26002556535896987,2.863513221417957,5.040852425256745,0.9836903358532295,5.850450652071085
0.24449613951402965,3.0974424070326956,5.215247267129828,0.9836903358532295,5.918153150035945
0.16676093485638047,3.1139123924977063,5.230440028780846,0.9836903358532295,5.94527230964711
0.16676093485638047,3.134102797915797,5.256545825249313,0.9836903358532295,5.956433463484245
0.16676093485638047,3.1579574454920087,5.266179516034097,0.9836903358532295,5.918153150035945
0.16676093485638047,3.1579574454920087,5.289135522260781,0.9836903358532295,5.703601403107579
0.16676093485638047,3.1135230146808497,5.256545825249313,1.0053861140291709,5.133245184871449
0.16676093485638047,3.0974424070326956,4.391026159696261,1.0153448035200403,3.9683493069622413
0.16676093485638047,3.1579574454920087,3.004753111378501,1.0405141534575972,2.7331696573263646
0.16676093485638047,3.1593764849538184,1.9702843207956164,1.0653554767139617,1.9737495460122827
0.26192135711031383,3.2042795290718917,1.4055832765408591,1.0915867930880048,1.55311077615252
0.26192135711031383,3.214305994553688,1.1403337261746505,1.1051336773202889,1.4930302437088918
0.2960586815114039,3.2423227894009274,0.9195111299294294,1.1574741321745345,1.412567276238382
0.4136763930388511,3.3597614224208847,0.613372946389295,1.312366762037927,1.3980893784012565
0.5075801982182364,3.61668682134884,0.5806057072574868,1.6128253460472866,1.3980893784012565
0.5479621740791655,3.61668682134884,0.5072458503564965,2.3383563106204392,1.3980893784012565
0.5479621740791655,4.052494857360406,0.4449155182278583,3.294954959765817,1.3980893784012565
0.5479621740791655,4.085316257340903,0.3884235483090891,4.761542450620478,1.3980893784012565
0.5479621740791655,4.136589939827794,0.36498996167908193,5.651017919439005,1.3980893784012565
0.5479621740791655,4.1666856861209745,0.34368346568254465,5.96039728875355,1.3980893784012565
0.5491003938929627,4.1666856861209745,0.3356612814273069,6.027449283274445,1.3980893784012565
0.7322008234229997,4.1666856861209745,0.25913665311149586,6.027449283274445,1.3980893784012565
0.8722812432653223,4.1666856861209745,0.25913665311149586,6.027449283274445,1.4466715930691958
0.9629863752724837,4.137673942954187,0.25913665311149586,6.0253413187244655,1.4078893852433696
0.9784946489634337,4.085578145495028,0.25913665311149586,6.009803979827079,1.4078893852433232
0.9784946489634337,4.085578145495028,0.25913665311149586,6.009803979827079,1.368775995482997
0.9784946489634337,4.085578145495028,0.25913665311149586,6.009803979827079,1.368775995482997
0.9784946489634337,4.085316257340903,0.25913665311149586,6.009803979827079,1.3602920895780992
0.9784946489634337,4.069226050488939,0.25913665311149586,5.9891064478461455,1.3387347994202803
0.8358535323754009,4.065779668529785,0.3156766634911572,5.980270694795378,1.2240999962133625
0.7442582427834313,4.065779668529785,0.3156766634911572,5.980270694795378,1.1949721170698742
0.679090492866497,4.065779668529785,0.3545691300009632,5.980270694795378,1.1949721170698742
0.679090492866497,4.069226050488939,0.389525051037844,5.9891064478461455,1.1949721170698742
0.679090492866497,4.131252036057482,0.389525051037844,6.034430557570803,1.1949721170698742
0.679090492866497,4.131252036057482,0.3545691300009632,6.034430557570803,1.1949721170698742
0.679090492866497,4.131252036057482,0.3545691300009632,6.027200989719862,1.1949721170698742
0.679090492866497,4.104971999059589,0.3545691300009632,5.972292598996478,1.1949721170698742
0.8353580664029753,4.104971999059589,0.3545691300009632,5.972292598996478,1.1949721170698742
0.8665145211861554,3.9695902397007545,0.3545691300009632,5.962301640546462,1.2064468546111236
1.1141866419728657,3.9695902397007545,0.3545691300009632,5.899731311139487,1.240925599394311
1.260836802529083,3.9563472557579633,0.389525051037844,5.87908750045639,1.2762550407840394
1.5485524774997614,3.8904018975699386,0.39662030038149343,5.798556561702252,1.2811065596211357
1.6700745636737813,3.8904018975699386,0.39662030038149343,5.733900058750452,1.3077377319026404
1.7823566386179877,3.8904018975699386,0.6770746033816314,5.676258617711576,1.3077377319026404
1.8245045275932472,3.8904018975699386,0.8053296163680399,5.676258617711576,1.3077377319026404
1.8404301669574012,3.8904018975699386,0.8753151765595424,5.621982972213155,1.3077377319026404
1.8404301669574012,3.8904018975699386,1.093037519097632,5.593805865255125,1.3077377319026404
1.8404301669574012,3.6925107715481227,1.093037519097632,5.55334009654599,1.3077377319026404
1.8249490571177984,3.454360942145058,1.3033874358370754,5.55334009654599,1.2811065596211357
1.8249490571177984,3.454360942145058,1.3033874358370754,5.55334009654599,1.2762550407840394
1.787145758935105,3.55333978948301,1.4360702950974726,5.55334009654599,1.2811065596211357
1.679522308614947,3.7048657239132847,1.4604453873788916,5.575609607420575,1.153363415710737
1.6046975549035647,3.55333978948301,1.2962481217995934,5.575609607420575,1.1504165811166256
1.6046975549035647,3.55333978948301,1.2962481217995934,5.575609607420575,1.1504165811166256
1.6046975549035647,3.55333978948301,1.2962481217995934,5.640474194886143,1.1504165811166256
1.6046975549035647,3.55333978948301,1.2962481217995934,5.527116000505086,1.1504165811166256
1.6046975549035647,3.55333978948301,1.2962481217995934,5.442988173870329,1.1504165811166256
1.6046975549035647,3.5360712438375828,1.2962481217995934,5.4258491567604725,1.1504165811166256
1.6046975549035647,3.4947447421466937,1.2962481217995934,5.4258491567604725,1.0699740947701042
