1.3236758759775415,4.995709991139234,0.803412540240338,5.6721562805277665,2.4205321777093802
1.2734869253166703,4.959177935118014,0.803412540240338,5.438011425798399,2.4169536630016393
1.2734869253166703,4.649362034624332,0.803412540240338,4.770463462117257,2.4169536630016393
1.2734869253166703,4.169566997046481,0.803412540240338,3.926560811941,2.4169536630016393
1.2734869253166703,3.220186645352676,0.803412540240338,3.0057441865268957,2.4169536630016393
1.2734869253166703,2.050403803487406,0.8527094807663052,2.0524491747327254,2.4169536630016393
1.1814615417811822,1.6390100180438445,0.8527094807663052,1.8014852630994629,2.4169536630016393
1.1814615417811822,1.5441809714504162,0.8527094807663052,1.7089859632047721,2.4169536630016393
1.1814615417811822,1.5441809714504162,1.1183512850094475,1.7089859632047721,2.4169536630016393
1.1814615417811822,1.5441809714504162,1.5317760428125917,1.7089859632047721,2.6034710213184806
1.3804061932392575,1.072014681025761,2.468272116047757,1.7089859632047721,2.8402385775995613
1.4175643640711668,1.072014681025761,3.4134939020612807,1.7089859632047721,3.097786804765819
1.553963054986414,1.072014681025761,4.273174792904475,1.7089859632047721,3.7033892139363234
1.553963054986414,1.0460752288592536,5.0074537634649205,1.7089859632047721,3.7033892139363234
1.553963054986414,1.0460752288592536,5.302034675809019,1.7089859632047721,3.78258383490481
1.4175643640711668,1.0460752288592536,5.323906606547246,1.7089859632047721,3.066019589865164
1.4175643640711668,1.0635311075579998,5.323906606547246,1.7089859632047721,3.066019589865164
1.4292174740483452,1.0635311075579998,5.323906606547246,1.527582137955732,3.066019589865164
1.0507545184930944,1.0635311075579998,5.323906606547246,1.0181388825901898,3.066019589865164
0.9297868603005595,1.0635311075579998,5.323906606547246,0.8022421723880552,3.066019589865164
0.9297868603005595,1.0460752288592536,5.323906606547246,0.7070199302615062,3.066019589865164
0.9297868603005595,1.0724158670639867,5.323906606547246,0.6816580824596378,3.066019589865164
0.9297868603005595,1.194304455045984,5.323906606547246,0.6448942181857402,3.066019589865164
0.9297868603005595,1.194304455045984,5.343608638151048,0.477519228534181,3.066019589865164
0.9297868603005595,1.2080404136249159,5.51415061731143,0.33314952259402547,3.845582421162557
0.9297868603005595,1.338331954697779,5.721070928703695,0.24773318021289426,3.936024313613793
0.8909405092267395,1.338331954697779,5.856435346682928,0.22972112647861923,4.107511753046843
0.8908830378192584,1.338331954697779,6.040194137856206,0.22972112647861923,4.2309825298529375
0.8909405092267395,1.338331954697779,6.115218658836033,0.21765106211472549,4.2288024919070475
0.9533039210265222,1.3355038252325018,6.131341458607705,0.21765106211472549,4.2288024919070475
0.9533039210265222,1.3706801531060888,6.140934070468782,0.19189137005382356,4.2309825298529375
0.8909405092267395,1.4101179143376839,6.15206624128249,0.18860042449684924,4.235922015895085
0.8898681589987898,1.4237968009756456,6.140934070468782,0.1880345596312864,4.246227580242369
0.8700073964250028,1.4237968009756456,6.150821920448567,0.17478792970492563,4.256039027214262
0.7982205979466925,1.4051274805234906,6.15206624128249,0.14569002306417922,4.274038371625272
0.706914062459675,1.4016271825704145,6.146591434247611,0.10602556753657517,4.3019227382157155
0.5922965442876852,1.4016271825704145,6.1305800676879825,0.10602556753657517,4.30697748821648
0.45192362511739664,1.4016271825704145,6.1125322384326894,0.10602556753657517,4.30697748821648
0.45192362511739664,1.4016271825704145,6.112327829424462,0.10438051793715367,4.309436630276744
0.43776743663347467,1.4016271825704145,6.105761593014908,0.10438051793715367,4.331115860259639
0.4200138836865061,1.4016271825704145,6.101740639665586,0.10438051793715367,4.360386146508688
0.41776975206472977,1.4035735573107,6.088940796576753,0.10438051793715367,4.4043409378191685
0.41776975206472977,1.4035735573107,6.03381184359692,0.10438051793715367,4.360386146508688
0.41776975206472977,1.4035735573107,5.929825770259096,0.10602556753657517,4.35262976481277
0.41776975206472977,1.4035735573107,5.656716170282012,0.1273435992865766,4.35262976481277
0.41776975206472977,1.4108502252921071,4.841657242459406,0.12774321543176723,4.3019227382157155
0.4200138836865061,1.4173178916675206,3.1273094490762907,0.12774321543176723,4.047433466888506
0.6020755394148078,1.4638665295920876,1.7809684000649413,0.1327740371896045,3.6247747428399113
0.6376354174680925,1.522967436232734,1.2307340932876603,0.1561406112707885,3.2695883902936904
0.6391309752618247,1.5633028638570547,1.0142001066440542,0.34578083827789147,2.9971096436275806
0.6054752827110301,1.6763607873727062,0.9297961732833283,0.5522491158098268,2.9834867856428233
0.6054752827110301,1.8301813221509755,0.8688980022662031,0.7933212979435547,2.783756355821253
0.6391309752618247,2.053390869586136,0.8430979827357226,1.1399951080451585,2.7381037611428773
0.8503974123816539,2.248441748833198,0.7949105178564766,1.76961916100331,2.693828204057643
0.8503974123816539,2.6485043636385046,0.6344577877627278,2.5174570425379046,2.693828204057643
0.8503974123816539,3.53152543207245,0.6199508954984557,3.852874480755298,2.693828204057643
0.784831775725993,4.905327772754063,0.5955077909239161,5.372143270384797,2.693828204057643
0.6391309752618247,5.574478697051474,0.5955077909239161,6.044072102849195,2.693828204057643
0.5568527704637235,5.627572159635445,0.5955077909239161,6.156758926219279,2.68473599333729
0.5568527704637235,5.6541757666761825,0.5955077909239161,6.1724600435756765,2.6731209421823703
0.5568527704637235,5.6541757666761825,0.5955077909239161,6.1724600435756765,2.6731209421823703
0.5894117433679898,5.6541757666761825,0.5955077909239161,6.1724600435756765,2.6731209421823703
0.7458845006574122,5.707289884030795,0.5955077909239161,6.183395148185669,2.68473599333729
0.7458845006574122,5.738221605925497,0.5955077909239161,6.211292937270788,2.7691513342302
0.7458845006574122,5.753995058196207,0.6512917005211254,6.197934394272088,2.7826435384169197
0.7458845006574122,5.7544126136321045,0.6662274815478468,6.216499161496417,2.8144424736279974
0.7458845006574122,5.793316393775428,0.6951092076764226,6.194792405335386,2.8144424736279974
0.7648013365050709,5.793316393775428,0.7191801090077661,6.178866736409049,2.8144424736279974
0.767805706874392,5.753995058196207,0.7407519391946179,6.094107608780681,2.8144424736279974
0.810640778623279,5.707289884030795,0.7407519391946179,6.014570670109301,2.8144424736279974
0.8248713924342599,5.609039611214371,0.7407519391946179,5.947250733181524,2.8144424736279974
0.8822096630903319,5.576933409628689,0.774985347041045,5.947250733181524,2.559173117350888
0.9502999986660722,5.532740796962512,0.774985347041045,5.947250733181524,2.1633950518428002
1.0489824369477456,5.298490261104776,0.8478450924923726,5.934696682126643,2.1633950518428002
1.2698715703748409,5.1323244388422165,0.8478450924923726,5.772664674588292,2.1633950518428002
1.3413173092235755,5.0504315440165595,0.9162857748577888,5.51679138236192,2.1633950518428002
1.5511694183959124,4.727746334672462,0.9214566821250846,5.133721454510652,2.1633950518428002
1.556509933430262,4.380932903867748,0.9214566821250846,4.59511242846742,2.1633950518428002
1.6414120726815573,3.8934074844532716,0.9251650010755548,4.029045826032506,2.1633950518428002
1.7099428699986885,3.200966160250874,1.0349370195925622,3.8432650624789795,2.1633950518428002
1.71607784114474,3.200966160250874,1.1217428556604678,3.8432650624789795,2.1633950518428002
1.71607784114474,3.200966160250874,1.3220529622538886,3.8432650624789795,2.2880332001486634
1.6414120726815573,3.200966160250874,1.3568433555874158,3.8432650624789795,2.436133951622747
1.6414120726815573,3.200966160250874,1.1419773817895535,3.8432650624789795,2.521042432942336
2.0142550362066647,3.200966160250874,1.0074213070377631,3.8432650624789795,2.6496392243816023
1.4807962211790828,3.200966160250874,0.8784888101194447,3.8432650624789795,2.699590631788954
1.2517556448945004,3.200966160250874,0.7879615588432157,3.8432650624789795,2.7096646845250536
1.2246730842612537,3.200966160250874,0.7621847685095602,3.8432650624789795,2.7842364594093527
1.1381711616174492,3.200966160250874,0.7403734875901694,3.8432650624789795,2.73596600231824
0.9588069692551846,4.027228795145014,0.7403734875901694,3.9480587250596804,2.699590631788954
0.9588069692551846,4.58790314663414,0.7403734875901694,4.8448041123688705,2.699590631788954
0.9588069692551846,5.452157363954148,0.7403734875901694,5.83790083803533,2.699590631788954
0.9588069692551846,5.54544889111745,0.7403734875901694,6.079402275082697,2.699590631788954
0.9588069692551846,5.579404487275263,0.7388326887802925,6.097441892766524,2.699590631788954
0.9588069692551846,5.579404487275263,0.7258333907975141,6.110925916794112,2.5305113463020605
0.9588069692551846,5.54544889111745,0.7258333907975141,6.110925916794112,2.3501671357499596
0.9588069692551846,5.534859927991229,0.6704683260557096,6.110925916794112,2.3501671357499596
0.9958435848068334,5.469052264124491,0.593958000966699,6.110925916794112,2.3501671357499596
1.0724351522694282,5.44089797476403,0.563653793968924,6.108812191987581,2.3501671357499596
1.0955364798117408,5.44089797476403,0.5522984298393219,6.107586933690822,2.366986826830211
1.0955364798117408,5.42369262034299,0.5522984298393219,6.107586933690822,2.3501671357499596
1.0955364798117408,5.399358036759207,0.5522984298393219,6.107586933690822,2.20525901522378
1.0955364798117408,5.352300086918706,0.5522984298393219,6.049848030885217,2.20525901522378
1.0955364798117408,5.270041878881851,0.5522984298393219,5.961582593564062,2.20525901522378
1.0955364798117408,5.219850835085378,0.563653793968924,5.860691778730197,2.20525901522378
1.0955364798117408,5.212835882745057,0.593958000966699,5.827532079000585,2.281096061932918
1.0955364798117408,5.134972467218792,0.6293612289100297,5.827532079000585,2.281096061932918
1.254658494121397,5.073128816053379,0.6293612289100297,5.827532079000585,2.17469316443488
1.254658494121397,4.911014761230556,0.7093270837819551,5.783097100136934,2.17469316443488
1.3551638023939885,4.84622855452064,1.0273784668016734,5.718604595755923,2.17469316443488
1.4804868688612247,4.84622855452064,1.2037246201859821,5.718604595755923,2.17469316443488
1.4804868688612247,4.84622855452064,1.2141860451295687,5.718604595755923,2.237584813010741
1.4804868688612247,4.84622855452064,1.4352782697413933,5.718604595755923,2.237584813010741
1.953454661592849,4.84622855452064,1.210584883595777,5.718604595755923,2.17469316443488
1.4330838278874234,4.84622855452064,1.1099167632374982,5.718604595755923,2.1670704223304718
1.4330838278874234,4.911014761230556,1.1099167632374982,5.799697885916682,2.1670704223304718
1.4330838278874234,4.8723698670913995,1.1099167632374982,5.799697885916682,2.1670704223304718
1.4330838278874234,4.8723698670913995,1.0528027759022578,5.799697885916682,2.237584813010741
1.4103374923385708,4.999153550464962,1.0439976764897874,5.799697885916682,2.1670704223304718
1.2683265619061324,5.068214141880767,1.0134973611103977,5.810592634907761,1.9815740139185662
1.2683265619061324,5.1564245340025625,1.0134973611103977,5.947328447247155,1.9815740139185662
1.2683265619061324,5.115048949783773,1.0134973611103977,5.947328447247155,1.9815740139185662
1.2683265619061324,5.1065958544155095,1.0134973611103977,5.854405912885705,1.9815740139185662
1.4103374923385708,5.1065958544155095,1.0134973611103977,5.847053011814355,1.9815740139185662
1.4330838278874234,5.068214141880767,1.100164815845046,5.847053011814355,1.9815740139185662
1.645734322487552,5.0091111267946715,1.100164815845046,5.847053011814355,1.8072317311311008
1.645734322487552,4.8723698670913995,1.100164815845046,5.767276742470829,1.7570178307850781
1.645734322487552,4.820743998868216,1.100164815845046,5.649740373110128,1.7570178307850781
1.7032107795869307,4.820743998868216,1.103108152905092,5.649740373110128,1.7570178307850781
1.7032107795869307,4.820743998868216,1.157654309516404,5.649740373110128,1.7582322785733233
1.7032107795869307,4.820743998868216,1.2025879726130464,5.649740373110128,1.7644392939864515
1.7663528003759914,4.820743998868216,1.2898063371038457,5.649740373110128,1.7644392939864515
1.7663528003759914,4.820743998868216,1.3240971422590846,5.649740373110128,1.7644392939864515
1.7663528003759914,4.820743998868216,1.3240971422590846,5.649740373110128,1.7644392939864515
1.7663528003759914,4.820743998868216,1.4105439056319968,5.641806150025794,1.7644392939864515
1.857879659194962,4.820743998868216,1.4530231974745953,5.641806150025794,2.011969508613468
1.934287082196258,4.880277593809495,1.4530231974745953,5.641806150025794,2.011969508613468
1.934287082196258,4.880277593809495,1.4530231974745953,5.641806150025794,2.2334966338073374
1.934287082196258,4.880277593809495,1.4530231974745953,5.609023538813488,2.0504101432205686
2.086397447903893,4.8122278071187194,1.4530231974745953,5.430343023413157,2.0504101432205686
2.0878695344714613,4.431671001415681,1.512584824038254,4.887600697360298,1.9572666425230796
2.2565381592092626,4.3091595516530345,1.6500949550813888,4.887600697360298,1.887284019622617
2.2802600720525006,4.168475206905197,1.8473767196363655,4.887600697360298,1.548889627306294
2.2802600720525006,3.978787077735171,1.9812540900356894,4.887600697360298,1.548889627306294
2.2802600720525006,3.569179530244746,2.0338000158218428,4.3991171875066835,1.548889627306294
2.3383697452650964,3.2537681799070266,2.036717197718667,4.1964872359448435,1.548889627306294
2.3383697452650964,3.2537681799070266,2.095651195959584,4.1964872359448435,1.548889627306294
2.696672112094732,3.2537681799070266,2.24985394973044,3.9181081350018943,1.548889627306294
2.8947215885253623,3.2537681799070266,2.4578814795656374,3.9181081350018943,1.548889627306294
2.908522555223406,3.2537681799070266,2.6959653026309423,3.9181081350018943,1.548889627306294
2.9463351075728594,3.2537681799070266,3.0344647802295994,3.7389704208660572,1.548889627306294
3.026783305716695,3.062153902574516,3.0344647802295994,3.2481430671993436,1.6783445400079662
3.0050102060635653,2.81855405115696,3.3756065189244406,2.9573993036392436,2.012469681233402
2.964002221424948,2.5603046394492086,3.5321144864370426,2.6485407773793805,2.4086477959241037
2.877997298419639,2.41190469893,3.8721422807863566,2.6485407773793805,2.5178321882540753
2.7378269730905087,2.095104298558077,3.8721422807863566,2.6216326533246193,2.900645557137981
2.6858012816650327,1.9867540200869491,3.8721422807863566,2.536369021267651,3.3859797292383824
2.405480002852607,1.931402421420786,4.176168262620749,1.9225568678375147,3.3951533089280614
2.405480002852607,1.5380486684375023,4.176168262620749,1.6211894266826468,3.3951533089280614
1.7948826509235742,1.4662097133983494,4.176168262620749,1.5148028397752145,3.3951533089280614
1.700047695972296,0.9862627351676365,4.971746654105507,1.4231397709130233,3.4768622747991755
1.6847100663041075,0.8195176355053964,5.2913338177769775,1.3108832306695513,3.4768622747991755
1.0958188462712328,0.7849880666713752,5.358023414139444,1.0817307026734657,3.523638339880864
1.0958188462712328,0.7535658048913924,5.362789371091724,1.0093258377922685,3.589826554818094
1.0958188462712328,0.7533204703584734,5.447452949093854,0.8807185372711372,3.692769762953233
1.0958188462712328,0.7533204703584734,5.5084801768790665,0.8668625032135981,3.7060823989771374
0.9833920604702573,0.7533204703584734,5.639442827024807,0.8526004412577116,3.7060823989771374
0.9365521803364055,0.7533204703584734,5.817469854572972,0.8334032545790331,3.7060823989771374
0.9365521803364055,0.7533204703584734,5.826154128018069,0.8334032545790331,3.94162389040792
0.9365521803364055,0.7535658048913924,5.901463137808551,0.8334032545790331,3.99346481974649
0.9365521803364055,0.7535658048913924,5.932465774749402,0.8334032545790331,4.028149043399589
0.9365521803364055,0.8195176355053964,5.978581340609585,0.8334032545790331,4.028149043399589
0.9833920604702573,0.8375535677333621,6.000789944395497,0.8334032545790331,4.028149043399589
0.9562419148002039,0.9640845368926273,5.978581340609585,0.8334032545790331,4.028149043399589
0.9562419148002039,0.9640845368926273,5.978581340609585,0.8147620989575006,4.028149043399589
0.9222094913445992,0.9702702411862723,5.978581340609585,0.8270283145902889,4.028149043399589
0.9222094913445992,0.9822209109320361,5.978581340609585,0.8270283145902889,4.044555236163207
0.9222094913445992,0.9822209109320361,6.0140676204692,0.8051967522047414,4.044555236163207
0.9562419148002039,0.9822209109320361,5.962752441746813,0.8051967522047414,4.044555236163207
1.0524198934005433,1.005546465221266,5.906143909837783,0.8051967522047414,4.140183263184314
1.0524198934005433,1.005546465221266,5.785493128009127,0.8051967522047414,4.037150993524753
1.0524198934005433,1.0748385037291954,5.732057923499718,0.8051967522047414,3.954253641784299
1.0524198934005433,1.0746594126807147,5.732057923499718,0.8051967522047414,3.6870402068658614
1.0524198934005433,1.0746594126807147,5.703568580286882,0.8051967522047414,3.6870402068658614
1.2497327093347648,0.9822209109320361,5.687863712836353,0.8051967522047414,3.6870402068658614
1.313220220995848,0.9716498602614095,5.628994534820558,0.8678567411631485,3.6870402068658614
1.350907207592468,0.9225979357045351,5.495291763124499,0.9263811802815128,3.6870402068658614
1.36463561884398,0.8890965453345432,5.495291763124499,0.9856488921413379,3.6113151798062875
1.6597169372700566,0.7547158908371719,5.470906500275929,1.362811976887069,3.107812804094497
1.7656259129043155,0.7547158908371719,5.39389691694636,1.442495199060748,3.107812804094497
1.7656259129043155,0.7547158908371719,5.323057951952046,1.5398268582133057,3.107812804094497
1.8884671449947865,0.7547158908371719,5.09981399701073,1.6342713960523423,3.107812804094497
2.0101926026970953,0.7547158908371719,5.09981399701073,1.6641113418960107,3.2514579036474838
2.0101926026970953,0.7547158908371719,5.09981399701073,1.8574692580542007,3.107812804094497
2.055032466939931,0.7547158908371719,5.09981399701073,2.080400259548918,3.107812804094497
2.14279912470422,0.9225979357045351,4.8760894990638715,2.2203350313777417,2.9694620908276566
2.1988804146804366,0.9653078371290065,4.307613107827759,2.2280297518917043,2.8136381491912865
2.255708616407132,1.203279480688088,4.240230123577963,2.292051892255749,2.557797299014888
2.301223177998516,1.3120279596796012,4.240230123577963,2.3927537620187658,2.557797299014888
2.301223177998516,1.4202986014704722,4.240230123577963,2.4468987074029207,2.557797299014888
2.4984141318845015,1.4530519708896374,4.240230123577963,2.5194395968997823,2.557797299014888
2.4984141318845015,1.4530519708896374,4.240230123577963,2.5194395968997823,2.557797299014888
2.5063950167152846,1.5163666883592817,4.240230123577963,2.5194395968997823,2.557797299014888
2.5859106891049937,1.67599535237781,4.098525068734387,2.585638534750236,2.557797299014888
2.601452728540298,1.9575933739390334,4.022207521201786,2.6583990466623764,2.557797299014888
2.933078961552662,2.2221689651657304,4.022207521201786,2.9296019123158135,2.4999999999999334
2.933078961552662,2.2221689651657304,4.022207521201786,2.9296019123158135,2.4999999999999334
2.933078961552662,2.2221689651657304,4.105373136894371,2.9296019123158135,2.4999999999999334
2.933078961552662,2.2221689651657304,3.976557400391471,2.9296019123158135,2.2120105785530786
2.933078961552662,2.2750358178491963,3.384989415938482,2.9296019123158135,2.2120105785530786
2.956813156725986,2.4170294502960403,3.384989415938482,2.9296019123158135,2.2120105785530786
3.197475770929013,2.6053666341012294,3.384989415938482,3.1947877573701975,2.2120105785530786
3.2145544169614464,2.6053666341012294,3.384989415938482,3.6264959003002657,2.2120105785530786
3.387974705253921,2.6138357099790523,3.384989415938482,3.6294884954127227,2.2120105785530786
3.2442787009683043,2.694610395935616,3.260195119857879,3.6294884954127227,2.164908043289686
3.2442787009683043,2.73473075386761,3.260195119857879,3.6294884954127227,2.096246593851746
3.2442787009683043,2.8028140224970963,3.260195119857879,3.6294884954127227,1.9911451976681958
3.3280100151999568,2.6053666341012294,3.260195119857879,3.55773319828775,1.7800138724565502
3.3280100151999568,2.548428405539448,3.260195119857879,3.4953667176774337,1.7800138724565502
2.973184318133379,2.548428405539448,3.260195119857879,3.4216843517871065,1.7800138724565502
2.973184318133379,2.548428405539448,3.378871582801103,3.4216843517871065,1.7800138724565502
2.973184318133379,2.4303224723269583,3.378871582801103,3.376257894250187,1.7800138724565502
2.973184318133379,2.3601762318993806,3.378871582801103,3.324566946707927,1.7800138724565502
2.973184318133379,2.3601762318993806,3.378871582801103,3.324566946707927,1.7800138724565502
2.8843255699406907,2.3601762318993806,3.378871582801103,3.324566946707927,1.8769768284728825
2.8843255699406907,2.3601762318993806,3.9654028008600393,3.324566946707927,1.9428887696911725
2.8843255699406907,2.3601762318993806,3.9777751720810395,3.324566946707927,1.8769768284728825
2.8843255699406907,2.3601762318993806,4.1413312926862496,3.324566946707927,1.8769768284728825
2.610154286719375,2.548428405539448,4.1413312926862496,3.1436817661905776,1.896691238214072
2.527888806848368,2.1467179878609572,4.1413312926862496,2.361873584503909,1.896691238214072
2.527888806848368,1.8654105653922748,4.1413312926862496,2.131723474535064,1.896691238214072
2.527888806848368,1.8654105653922748,4.1413312926862496,2.131723474535064,1.896691238214072
2.527888806848368,1.90583170921719,4.1413312926862496,2.131723474535064,1.896691238214072
2.527888806848368,1.90583170921719,3.910561144953587,2.131723474535064,1.896691238214072
2.527888806848368,1.90583170921719,3.910561144953587,2.131723474535064,1.896691238214072
2.527888806848368,1.7917344924323577,3.910561144953587,2.131723474535064,2.2645394734645095
2.4321300603787157,1.642954698539605,3.910561144953587,2.131723474535064,2.4243484496379875
2.163017401722597,1.642954698539605,4.245585189458821,2.131723474535064,2.6407037460103733
2.163017401722597,1.5509504936889849,4.245585189458821,2.131723474535064,2.6407037460103733
2.163017401722597,1.52526850210367,4.245585189458821,2.131723474535064,2.6407037460103733
2.090706967839623,1.418123008152655,4.245585189458821,1.9507138527200476,2.6407037460103733
2.090706967839623,1.3434004584910966,4.245585189458821,1.9609778853031476,2.6407037460103733
2.090706967839623,0.7749048393205034,4.245585189458821,1.9609778853031476,2.6407037460103733
1.9412345262963546,0.7749048393205034,4.245585189458821,1.9609778853031476,2.6407037460103733
1.9202449822667584,0.7749048393205034,4.848648494617168,1.9609778853031476,2.8809419779252723
1.8315922020377484,0.7749048393205034,4.973617420386426,1.9609778853031476,2.8809419779252723
1.7995496831456665,0.6877411694322262,4.973617420386426,1.7452735906623742,2.943489149899542
1.7995496831456665,0.6877411694322262,4.973617420386426,1.5935584731373678,3.0498930138785854
1.7995496831456665,0.6877411694322262,5.126874733334789,1.5581897672478975,3.1772056011625693
1.7995496831456665,0.6877411694322262,5.2581701025616985,1.5581897672478975,3.1772056011625693
1.7995496831456665,0.6877411694322262,5.401201269390684,1.5581897672478975,3.1772056011625693
1.7995496831456665,0.7749048393205034,5.2581701025616985,1.5581897672478975,3.1772056011625693
1.7995496831456665,0.926292133773959,5.224087295293806,1.5581897672478975,3.2847832529178804
1.7995496831456665,0.950568237874825,5.224087295293806,1.5581897672478975,3.2847832529178804
1.7995496831456665,0.950568237874825,5.168774998663604,1.5581897672478975,3.0030036653202257
1.9817728972775432,0.950568237874825,5.098448873707826,1.5581897672478975,2.5123512949585183
2.085092282853653,0.950568237874825,4.191856095481917,1.5581897672478975,2.2888169099730096
2.3040720930069276,1.08329952459019,3.744931987413869,1.7272051821466805,2.069436855627197
2.3155758688268486,1.0975391535097727,3.744931987413869,1.8475654085059965,2.069436855627197
2.3241854927810093,1.3120952135050854,3.744931987413869,2.2280466397420984,1.6767224446151239
2.4979313198341955,1.3453630548341902,3.744931987413869,2.538479020042165,1.6398625867476293
2.661465745334097,1.4227655819616374,3.744931987413869,2.538479020042165,1.6398625867476293
2.6717222774866354,1.6738922206735458,3.572994764529334,2.6760776661047014,1.6398625867476293
2.8163714713174235,2.1241643539224304,3.572994764529334,2.749140604358806,1.6398625867476293
2.8868891048895713,2.1241643539224304,3.572994764529334,2.990889731337896,1.6398625867476293
2.6717222774866354,1.8480148895682944,3.572994764529334,2.323492301464915,1.6398625867476293
2.661465745334097,1.5101598163691548,3.572994764529334,2.301431037320025,1.6398625867476293
2.5611062903208004,1.5101598163691548,3.744931987413869,2.301431037320025,1.6767224446151239
2.5611062903208004,1.5101598163691548,4.103238301189975,2.301431037320025,1.8553683844294946
2.5611062903208004,1.5101598163691548,4.172950308727216,2.301431037320025,1.8553683844294946
2.5611062903208004,1.5101598163691548,4.172950308727216,2.301431037320025,2.142145393032171
2.5611062903208004,1.5101598163691548,4.172950308727216,2.301431037320025,2.3531039248465375
2.5611062903208004,1.5101598163691548,4.184113768367758,2.301431037320025,2.3531039248465375
2.5611062903208004,1.5101598163691548,4.319418748637766,2.301431037320025,2.4923685871726238
2.5611062903208004,1.5101598163691548,4.221510269749655,2.301431037320025,2.4923685871726238
2.459952278357194,1.5101598163691548,4.221510269749655,2.301431037320025,2.4923685871726238
2.504091020720955,1.7761164494894737,4.221510269749655,2.484931872065509,2.4923685871726238
2.459952278357194,1.8263383836365727,4.221510269749655,2.3504727745829643,2.4923685871726238
2.681434860711899,2.0120039982543427,4.221510269749655,2.3504727745829643,2.4923685871726238
2.681434860711899,2.0120039982543427,4.284353944970803,2.3504727745829643,2.4923685871726238
2.681434860711899,2.1471562177547807,4.284353944970803,2.3504727745829643,2.4923685871726238
2.681434860711899,2.1968314117828576,4.284353944970803,2.3504727745829643,2.4923685871726238
2.681434860711899,2.1968314117828576,4.094894686411559,2.3504727745829643,2.556011842629568
2.681434860711899,2.1968314117828576,4.094894686411559,2.3504727745829643,2.556011842629568
2.835278711220472,2.1968314117828576,4.012911175849519,2.3504727745829643,2.556011842629568
2.835278711220472,2.1968314117828576,4.094894686411559,2.3504727745829643,2.232807620062193
2.8884779531524294,2.1968314117828576,3.0170374237359447,2.3504727745829643,2.0259172122861986
2.8884779531524294,2.423011479455136,2.578173449110375,2.3504727745829643,1.8915701253727892
2.8884779531524294,2.672429789475452,2.2817569100208623,2.78524780871566,1.8915701253727892
2.757609342026265,2.7868708197086742,1.7635217119964062,3.2287235004752572,1.8915701253727892
2.730450582964186,3.1324830815159044,1.4886827842200527,3.536668690345298,1.8915701253727892
2.555387384512595,3.2662838982065145,1.4215822089499288,3.8856177187984464,1.8915701253727892
1.9273893387402234,3.5462605052038465,1.2714846210427528,4.063858208504271,1.8915701253727892
1.9173320360683002,3.757808849012593,1.2633867487071195,4.07976696123001,1.8915701253727892
1.6830521000487197,4.206287897297252,1.2247347102038884,4.598910601827351,2.0259172122861986
1.6736999218612083,4.4103302957608985,1.2209815500206533,4.728109305371999,2.0466098062799807
1.3738494277446023,4.779501420837228,0.8520817762183297,5.460244080311044,2.0466098062799807
1.344820501564161,4.962125004075575,0.8520817762183297,5.49560565602816,2.3807900705254186
1.344820501564161,5.045871334283727,0.8520817762183297,5.546417931519606,2.491243651918448
1.344820501564161,5.054581166514165,0.8520817762183297,5.180099634070426,2.491243651918448
1.344820501564161,4.318343789827554,0.8520817762183297,4.405391367706661,2.491243651918448
1.344820501564161,3.6261366284075978,0.8520817762183297,3.382325247405693,2.491243651918448
1.3321790427381728,2.46379098122983,0.8520817762183297,2.4331837015149445,2.491243651918448
1.2224535727734216,1.9345827507266558,0.8909640416424531,1.632134338129215,2.498133416820902
1.2224535727734216,1.4561710144766027,0.8909640416424531,1.4471934952169705,2.529788200748153
1.2224535727734216,1.4561710144766027,1.073355778359223,1.4471934952169705,2.529788200748153
1.2224535727734216,1.4561710144766027,1.2207052623328816,1.4471934952169705,2.6688981847897204
1.1490148259983022,1.4494141146178077,2.0065143391560243,0.7806332370529925,2.7990376801092305
1.2583545325452374,1.3942140874079203,2.940350589155623,0.7406511973576517,2.83850040861694
1.1490148259983022,1.3389227951048035,3.8237743784342944,0.7406511973576517,3.6490173110974653
1.1292364984107064,1.3095943531018417,4.6463509768408935,0.7406511973576517,3.8152318028157874
1.0246524819242402,1.3095943531018417,5.374515822392486,0.7406511973576517,3.924897497270024
1.0246524819242402,1.3095943531018417,5.609667284856366,0.7406511973576517,4.107318344412823
1.0246524819242402,1.3095943531018417,5.7123247640037595,0.7406511973576517,3.999901204074377
1.0246524819242402,1.216059757143092,5.728212430531847,0.7164843346707448,3.897325256367163
1.0246524819242402,1.216059757143092,5.748612669920594,0.6129020515753071,3.98902589566745
0.9310799387737083,1.216059757143092,5.878796145175049,0.6034360757082251,4.032200628676836
0.8825481247578048,1.216059757143092,5.935550374391068,0.5669247979470005,4.032200628676836
0.9310799387737083,1.2506613853577884,5.935550374391068,0.5443285507397562,3.98902589566745
0.9326765335782049,1.2506613853577884,5.945656492304211,0.5185414542778635,3.951767957984267
1.0246524819242402,1.3095943531018417,5.945656492304211,0.5121030815372003,3.93873746187211
1.0792185599591462,1.3161505796622142,5.999172487751577,0.5038113349926281,3.93873746187211
1.1265835290353514,1.3161505796622142,6.042589755935992,0.4470874249744779,3.93873746187211
1.0158029537153508,1.3161505796622142,6.047351929173671,0.3963742977624497,3.951767957984267
0.8683556980917471,1.3161505796622142,6.058101438778501,0.37807017197042564,4.180632566741959
0.8683556980917471,1.2506613853577884,6.065467566692819,0.37807017197042564,4.180632566741959
0.8683556980917471,1.2506613853577884,6.070643673683567,0.3307192737532866,4.062961646979925
0.8683556980917471,1.248427076453635,6.093493062400571,0.2865183055392231,4.062961646979925
0.8756039378070629,1.248427076453635,6.093493062400571,0.28095461550566747,4.062961646979925
0.8683556980917471,1.248427076453635,6.0818451830130655,0.26212222437140387,4.180632566741959
0.8448118659692795,1.3268681170496188,6.084348862592534,0.21391791714898173,4.202192688481465
0.5934462577603368,1.2509428229702733,6.1019025309167105,0.21391791714898173,4.207479261735379
0.5877123635911544,1.2509428229702733,6.105137202233656,0.21391791714898173,4.207479261735379
0.5675103475378013,1.2509428229702733,6.115453173491427,0.21391791714898173,4.207479261735379
0.5479015833705914,1.2509428229702733,6.105137202233656,0.21391791714898173,4.207479261735379
0.5392955132618206,1.2509428229702733,6.096795223425215,0.21391791714898173,4.207479261735379
0.5392955132618206,1.2402229482091178,6.064591802401969,0.21391791714898173,4.321241049794895
0.5392955132618206,1.2402229482091178,5.98106713462032,0.21391791714898173,4.321241049794895
0.5392955132618206,1.3268681170496188,5.864502950287119,0.22234521383040773,4.37620412812506
0.5392955132618206,1.3268681170496188,5.7260601702808245,0.2521730756598702,4.321241049794895
0.5392955132618206,1.3268681170496188,5.248538931427175,0.2672918658190681,4.2559946418003065
0.5479015833705914,1.3299968516032277,3.769856469825609,0.2915056226095713,4.087734031469481
0.6668305095577585,1.348282537361157,2.68617149548736,0.32090984167066106,3.4446761340984975
0.6982342061879253,1.370883644114679,1.8892224753964801,0.39033835167756337,2.549744762424242
1.0848527102193308,1.4903261814076931,1.5200211939883892,0.4662732173828277,2.549744762424242
0.8981001254875504,1.4903261814076931,1.3857889072867648,0.6083681538173001,2.524352005792741
0.9310426074260334,1.5846148985189952,1.1524845051586352,0.9109246717509136,2.316174289232602
1.095552754175767,1.812539579032621,1.0613533040733574,1.2347349765693154,2.3028624372774233
1.2545602964775349,2.1110571337106534,0.9522658353230442,1.7553710309346606,2.3028624372774233
1.2737743082108044,2.6173641936564715,0.812534677072915,2.394988471412823,2.3028624372774233
1.2545602964775349,3.3733791668184465,0.7950866594167808,3.3892438616492417,2.3028624372774233
1.1526254509525906,4.682840327578324,0.777699875848664,5.031204553359796,2.3028624372774233
0.9776694939075399,5.115601667965685,0.7521811041707143,5.745591444615265,2.3028624372774233
0.9310426074260334,5.194411299980697,0.7459012227242792,5.859580728590066,2.3737463718301663
0.8922669209520345,5.424187464944476,0.7379532718152305,6.050570872787001,2.3737463718301663
0.7740873564208759,5.49189389850877,0.7379532718152305,6.070764283466852,2.3737463718301663
0.7149579060579788,5.536633812887292,0.7379532718152305,6.070764283466852,2.619619783902249
0.7116891706090939,5.587046248876103,0.7379532718152305,6.070764283466852,2.7273329523562246
0.7116891706090939,5.678496715620758,0.7459012227242792,6.105133892936495,2.7952887326930322
0.7116891706090939,5.745591637615506,0.7459012227242792,6.159174842692487,2.81511605752155
0.7116891706090939,5.796784025928227,0.7752175115482082,6.21767324419349,2.8429686439747197
0.7116891706090939,5.82130454872697,0.777699875848664,6.211241787417822,2.8429686439747197
0.7116891706090939,5.82130454872697,0.7858742365648402,6.1987873095240325,2.8429686439747197
0.7149579060579788,5.811254278495596,0.7908076059619443,6.165130274948731,2.81511605752155
0.7398518502842043,5.811254278495596,0.7685779801829843,6.13114928550707,2.7952887326930322
0.800959677718742,5.765525764644931,0.7685779801829843,6.13114928550707,2.7374973099610944
0.831093503236268,5.759825986678174,0.7669104254651236,6.13114928550707,2.7247505228202966
0.831093503236268,5.759825986678174,0.7395252788355323,6.13114928550707,2.7247505228202966
0.8433037604757888,5.708555453253218,0.6600394733554105,6.13114928550707,2.7247505228202966
0.9188438676751562,5.700595267765006,0.6600394733554105,6.13114928550707,2.7247505228202966
0.9599261879670914,5.65889338861731,0.6600394733554105,6.106589142583462,2.7247505228202966
0.9969466591559384,5.632138597996918,0.6600394733554105,5.927930574023515,2.7247505228202966
1.0367008364469819,5.563224248471235,0.6600394733554105,5.799552581989741,2.7247505228202966
1.0367008364469819,5.272162252826479,0.6600394733554105,5.388113169367262,2.6860909459413036
1.0367008364469819,4.758799089899401,0.6600394733554105,4.608279826802294,2.7247505228202966
1.0367008364469819,4.718792762001185,0.6600394733554105,4.608279826802294,2.746440920650822
1.052005026623966,4.4721359549995965,0.6785079700970391,4.608279826802294,2.746440920650822
1.4403584886095908,4.4721359549995965,0.8061677657369927,4.608279826802294,2.775100569262025
1.4403584886095908,4.4721359549995965,0.836800171032348,4.608279826802294,2.693283349571501
1.4403584886095908,4.4721359549995965,0.7926302337942586,4.608279826802294,2.5218176732272224
1.4403584886095908,4.4721359549995965,0.7671349129426545,4.608279826802294,2.5218176732272224
1.608737686336024,4.4721359549995965,0.6424497185916086,4.608279826802294,2.5218176732272224
1.3361798899975832,4.4721359549995965,0.6329802566576699,4.608279826802294,2.5218176732272224
1.0835216521700826,4.4721359549995965,0.6329802566576699,4.608279826802294,2.4778706878480827
1.0371019409715156,4.4721359549995965,0.6329802566576699,4.608279826802294,2.5218176732272224
1.0371019409715156,4.833241966153122,0.6329802566576699,4.904400863501437,2.5218176732272224
1.0371019409715156,5.085532690049034,0.585072013772493,5.474479334718527,2.5218176732272224
0.996368744861592,5.411372461161113,0.585072013772493,5.8155485159422815,2.5218176732272224
0.996368744861592,5.570974167807286,0.585072013772493,6.07874062255623,2.463964805436784
0.996368744861592,5.605678121811457,0.585072013772493,6.146136553756168,2.5275257503629978
0.996368744861592,5.64420648344563,0.5858356741014131,6.169146017722454,2.6998073693516136
0.996368744861592,5.64420648344563,0.6707204668415498,6.146857823734349,2.6998073693516136
1.0371019409715156,5.638288606471636,0.6707204668415498,6.074109850158194,2.6998073693516136
1.0540717434730276,5.563683575412448,0.7165156613034644,6.009532266579796,2.654293737730374
1.0926788611734104,5.492418054881591,0.7165156613034644,6.009532266579796,2.654293737730374
1.093566251434836,5.480611313739633,0.7165156613034644,6.009532266579796,2.2467022795959584
1.093566251434836,5.433005459585871,0.7165156613034644,6.009532266579796,2.0413696251823983
1.1125503690749978,5.254432884968416,0.9255234196777854,5.957524703798011,2.0413696251823983
1.2492070705689133,5.2100903590128365,1.0230243652750115,5.899966667933428,2.0413696251823983
1.3577890492667692,5.2100903590128365,1.025760289743799,5.899966667933428,2.0413696251823983
1.369111934167451,5.1199518231954055,1.025760289743799,5.899966667933428,1.9299092492460226
1.401682312071389,5.097115471142682,1.0395722811309118,5.899966667933428,1.7955489871873158
1.4540155770383498,5.097115471142682,1.0395722811309118,5.899966667933428,1.7955489871873158
1.4540155770383498,5.011274140192607,1.0395722811309118,5.846996022731207,1.7955489871873158
1.4540155770383498,4.9385890181294245,1.1277297770364445,5.7716854920746945,1.7955489871873158
1.6225092801380436,4.9385890181294245,1.1541200139273193,5.765384433476155,1.8399569041559063
1.6225092801380436,4.89936530235939,1.173661924750116,5.765384433476155,1.7955489871873158
1.769023146295165,4.848846210506494,1.2672642486239534,5.765384433476155,1.6504574797918263
1.769023146295165,4.715381930636309,1.2672642486239534,5.395135126163683,1.6504574797918263
1.769023146295165,4.627573415457598,1.2672642486239534,5.329896776628166,1.6504574797918263
1.8441263270592667,4.462601095475265,1.3022209839299734,5.236257158345961,1.6504574797918263
1.8919347494477488,4.33640882175944,1.3441811707519358,5.120004536549953,1.6504574797918263
2.037976425673713,4.330399389177391,1.3689469656308118,5.120004536549953,1.966451486328222
2.2933317159713247,4.30414287025487,1.4105481121220151,5.120004536549953,1.9669309463353548
2.2933317159713247,4.214629685843668,1.4576310911790995,5.120004536549953,1.9669309463353548
2.2933317159713247,4.202761542964871,1.4576310911790995,5.110778699934167,1.9669309463353548
2.2933317159713247,4.202761542964871,1.7347965139989054,5.110778699934167,1.9669309463353548
2.3638806459579125,4.202761542964871,1.8892176838233086,5.110778699934167,2.11268522421435
2.619854729481146,4.202761542964871,2.1120349874217563,5.110778699934167,2.13950462744441
2.619854729481146,4.214629685843668,1.9855109950619747,5.110778699934167,2.13950462744441
2.619854729481146,4.297378009119648,1.9855109950619747,5.110778699934167,2.13950462744441
2.619854729481146,4.297378009119648,1.9855109950619747,5.117677046878516,2.13950462744441
2.619854729481146,4.268309681120466,1.9855109950619747,5.2035289027541,2.13950462744441
2.3638806459579125,4.268309681120466,1.922305908150216,5.2035289027541,2.2287876056113856
2.293515975458975,4.268309681120466,1.872099772161009,5.2035289027541,2.2287876056113856
2.2170880387713536,4.411436829362746,1.2383134368221027,5.2035289027541,1.9563788898731922
1.7617111413598714,4.461135038778327,1.2319082034062814,5.24386722825589,1.9563788898731922
1.7617111413598714,4.539868510151592,1.2319082034062814,5.24386722825589,1.9563788898731922
1.7617111413598714,4.539868510151592,1.2319082034062814,5.24386722825589,1.9563788898731922
1.7617111413598714,4.539868510151592,1.2319082034062814,5.24386722825589,1.9241689559528208
1.7617111413598714,4.539868510151592,1.2319082034062814,5.24386722825589,1.8922713783632492
1.7617111413598714,4.472135954999582,1.2319082034062814,5.24386722825589,1.543367060696428
1.7617111413598714,4.579636021606935,1.2319082034062814,5.418132918603833,1.543367060696428
1.7617111413598714,4.579636021606935,1.2319082034062814,5.452099183898583,1.543367060696428
1.9566658507805703,4.579636021606935,1.2383134368221027,5.452099183898583,1.543367060696428
2.0430430116924683,4.579636021606935,1.4049996007442263,5.452099183898583,1.6023681154034703
2.0091882131006464,4.579636021606935,1.4700351496296222,5.452099183898583,1.4843764166832436
2.0091882131006464,4.579636021606935,1.5573958452207275,5.452099183898583,1.4843764166832436
2.1010384347650595,4.588857334947567,1.5573958452207275,5.517715052737736,1.4843764166832436
2.174035100906487,4.570901448570745,1.5573958452207275,5.451506616619042,1.4843764166832436
2.174035100906487,4.472135954999582,1.5573958452207275,5.302209836801441,1.4843764166832436
2.174035100906487,4.472135954999582,1.5573958452207275,5.302209836801441,1.6023681154034703
2.100606088686964,4.51245482779753,1.5573958452207275,5.302209836801441,1.6580086450199183
2.100606088686964,4.51245482779753,1.5573958452207275,5.302209836801441,1.9040617108659954
2.100606088686964,4.383863795563467,1.5573958452207275,5.180289293463319,1.9040617108659954
2.100606088686964,4.02524834458904,1.5573958452207275,4.491751093081057,1.7354079204448463
2.0143040400701757,3.8520452454986716,1.7920192382713498,4.17336079290294,1.7354079204448463
2.100606088686964,3.1348000780329026,1.801258950817823,3.556239029336438,1.7354079204448463
2.289513819494603,2.8471420514157266,1.9247039666952472,3.556239029336438,1.9040617108659954
2.289513819494603,2.5314334792190656,2.2482174136052584,3.251463567650897,1.9040617108659954
2.0143040400701757,2.1761854022117415,2.2482174136052584,1.8549008370384164,1.9040617108659954
2.0143040400701757,1.597813269129728,2.2482174136052584,1.74875177454367,1.9124173367626474
1.982934285186243,1.1324913548525821,2.345056891878401,1.6951396874103275,1.9124173367626474
1.847429698071153,1.1300593529585392,2.8553736349593923,1.4038576424943274,1.9697905437328782
1.6754312521086314,1.0691946871810791,3.5619500767788153,1.2839071539316458,2.089310545539647
1.6754312521086314,1.050121634475503,4.2483721223010935,1.2385981945408338,2.7682463775415243
1.2768792590095464,0.9813624211425762,4.591693536534409,1.2237566989191344,2.92393854476049
1.1823378483745892,0.9567824105720439,4.766730998241884,1.0590021520354904,3.1829328172468725
1.1823378483745892,0.9206346107889225,5.038821300011114,0.9818878672263021,3.448288330676642
1.1823378483745892,0.9042980709941664,5.4246678925342,0.9318234154773705,3.6432074811123374
1.1823378483745892,0.809968557147973,5.767612996244685,0.9318234154773705,3.6706599444878907
1.162368138428649,0.809968557147973,5.820665484184592,0.9318234154773705,3.6706599444878907
1.0017110102256033,0.7627625828704319,5.841308340263258,0.9318234154773705,3.8178431897693694
1.0017110102256033,0.7627625828704319,5.8484322856097375,0.9318234154773705,3.8880285450691354
1.0017110102256033,0.7154897943994366,5.877597524696699,0.9318234154773705,3.8880285450691354
1.0017110102256033,0.7154897943994366,5.932986430800607,0.9318234154773705,3.8880285450691354
1.162368138428649,0.6616365936302718,5.896625794781278,0.9318234154773705,3.8880285450691354
1.162368138428649,0.6168638313432078,5.883136109450774,0.9318234154773705,3.8880285450691354
1.0783058099746476,0.5952493808918575,5.883136109450774,0.9813226594755305,3.927504440695487
1.0783058099746476,0.5484173011671459,5.883136109450774,0.9885505197819318,3.927504440695487
1.0783058099746476,0.514478201138591,5.883136109450774,1.0453207425254574,3.8069896415739475
1.0783058099746476,0.5125787065119792,5.896625794781278,1.0453207425254574,3.8069896415739475
1.123281930759991,0.5125787065119792,5.8679369824034655,1.0628107082894986,3.8069896415739475
1.123281930759991,0.5125787065119792,5.851322050127159,1.0765629256575528,3.8069896415739475
1.1781678537932117,0.5125787065119792,5.7868535375513135,1.123429612504509,3.927504440695487
1.1781678537932117,0.5125787065119792,5.7868535375513135,1.123429612504509,3.927504440695487
1.1781678537932117,0.5125787065119792,5.7868535375513135,1.1344544767860731,3.8069896415739475
1.1781678537932117,0.514478201138591,5.799034617144252,1.1344544767860731,3.8069896415739475
1.2002955128775021,0.514478201138591,5.774011747435692,1.1344544767860731,3.8069896415739475
1.2710731196144704,0.7723921338147864,5.769763317182691,1.2086379200268051,3.8069896415739475
1.2638982091067763,0.7922759230203371,5.76733612898308,1.267549605882217,3.9306310526552393
1.2638982091067763,0.8077398593687269,5.76733612898308,1.298501003628188,3.948967757070059
1.2638982091067763,0.8593887330765559,5.76733612898308,1.298501003628188,3.7755110155775604
1.31612878556263,0.957943795803171,5.749685641792859,1.3078577763823984,3.7754497189066365
1.31612878556263,0.9982619625551465,5.696278490487021,1.3078577763823984,3.7754497189066365
1.4147075947655452,1.1775845752565397,5.5022245458088905,1.3078577763823984,3.7754497189066365
1.4867331015578578,1.1829202267643153,5.34305801529174,1.3078577763823984,3.6645412259300763
1.4867331015578578,1.185977043210745,5.297785230914355,1.3078577763823984,3.486346154323007
1.4867331015578578,1.1829202267643153,5.297785230914355,1.3078577763823984,3.451178104224907
1.8083267897790658,1.1829202267643153,5.156375354246484,1.3078577763823984,2.8787154913818207
2.1730128300128815,1.1829202267643153,4.914583508532932,1.3078577763823984,2.8495799635017636
2.2835994914738005,1.1829202267643153,4.607895198598704,1.5537647947423925,2.8495799635017636
2.3340378781852475,1.1829202267643153,4.607895198598704,1.634298272765943,2.8495799635017636
2.4078338846166076,1.2238948780365946,4.607895198598704,2.0633199156760127,2.79251949637173
2.450062522249428,1.2238948780365946,4.607895198598704,2.2419810784650247,2.7006030780016568
2.536788588688527,1.236963113147331,4.607895198598704,2.3758224838187707,2.7006030780016568
2.587162868033497,1.311985837000025,4.525685542721636,2.3758224838187707,2.7006030780016568
2.587162868033497,1.311985837000025,4.384274028135432,2.3758224838187707,2.6791899683852636
2.587162868033497,1.311985837000025,4.384274028135432,2.3758224838187707,2.6791899683852636
2.587162868033497,1.3525878937793903,4.384274028135432,2.3758224838187707,2.6352914482056513
2.5356740538670404,1.3525878937793903,4.384274028135432,2.3758224838187707,2.5870787630592664
2.439696887547311,1.3525878937793903,4.426055559924669,2.3758224838187707,2.5870787630592664
2.4283809177126674,1.3525878937793903,4.467166736160149,2.3758224838187707,2.5870787630592664
2.2628247982314784,1.2507922025098464,4.467166736160149,2.3758224838187707,2.5870787630592664
2.0443104503901477,1.1714628868743813,4.467166736160149,2.1649567775986447,2.5929465298636427
2.0443104503901477,1.2045061325994515,4.467166736160149,2.127556819899942,2.5929465298636427
2.0443104503901477,1.2045061325994515,4.467166736160149,2.127556819899942,2.5929465298636427
2.0443104503901477,1.2045061325994515,4.598683177322029,2.127556819899942,2.5929465298636427
2.0443104503901477,1.2045061325994515,4.681223223465119,2.127556819899942,2.5929465298636427
2.0443104503901477,1.2045061325994515,4.491805448334701,2.127556819899942,2.5929465298636427
2.0443104503901477,1.2045061325994515,4.491805448334701,2.127556819899942,3.17265712911978
2.0443104503901477,1.2045061325994515,4.491805448334701,2.127556819899942,3.17265712911978
2.2628247982314784,1.2045061325994515,4.491805448334701,2.127556819899942,3.17265712911978
1.9852111116827609,1.2045061325994515,4.491805448334701,2.127556819899942,3.2045230208210462
1.9189409428659476,1.3895149114524128,4.491805448334701,2.127556819899942,3.2045230208210462
1.9189409428659476,1.4358609173421606,4.491805448334701,2.127556819899942,3.2045230208210462
1.661744441843722,1.4358609173421606,4.491805448334701,1.653364503333953,3.2045230208210462
1.5402542958423955,1.4358609173421606,4.491805448334701,1.5496549321334157,3.2045230208210462
1.5402542958423955,1.4358609173421606,4.491805448334701,1.5496549321334157,3.2045230208210462
1.5402542958423955,1.4358609173421606,4.5577842518764875,1.5496549321334157,3.2045230208210462
1.5402542958423955,1.4358609173421606,4.654113466552734,1.5496549321334157,2.989546280543308
1.5402542958423955,1.4358609173421606,4.377531025581798,1.5496549321334157,2.8679868705001432
1.5402542958423955,1.4358609173421606,4.377531025581798,1.5496549321334157,2.8023838151326825
1.5402542958423955,1.4358609173421606,4.377531025581798,1.5496549321334157,2.765237244123501
1.5402542958423955,1.4358609173421606,4.377531025581798,1.5496549321334157,2.5002972778589694
1.5402542958423955,1.5169970573439033,4.377531025581798,1.5496549321334157,2.5002972778589694
1.5999638649699748,1.5169970573439033,4.377531025581798,1.5496549321334157,2.5002972778589694
1.822628636840178,1.5169970573439033,4.377531025581798,1.5620008153128624,2.5002972778589694
2.1228069121379973,1.6285449084128336,4.377531025581798,2.070947975228428,2.5002972778589694
2.626733097897376,1.6285449084128336,4.377531025581798,2.8058135575229937,2.445722112789804
2.8981272415717743,1.6285449084128336,4.377531025581798,2.9987997346488764,2.0767726284203527
2.7733557245537037,1.6285449084128336,4.4789270440199065,2.9987997346488764,2.0767726284203527
2.7733557245537037,1.6285449084128336,4.535243386462842,2.9987997346488764,2.0767726284203527
2.7733557245537037,1.6285449084128336,4.381447157365439,2.9987997346488764,2.0767726284203527
2.7733557245537037,1.7483653302293893,4.381447157365439,2.9987997346488764,2.168331204652661
2.8144751580147807,1.6763670359808458,4.381447157365439,2.831823212151531,2.344573820587599
2.8144751580147807,1.5953926643922087,4.381447157365439,2.7970540355973097,2.344573820587599
2.7733557245537037,1.5953926643922087,4.381447157365439,2.4873350969419725,2.344573820587599
2.656450402520054,1.6763670359808458,4.381447157365439,2.4873350969419725,2.344573820587599
2.4037714284532266,1.6763670359808458,4.381447157365439,2.4873350969419725,2.344573820587599
2.4037714284532266,1.6763670359808458,4.381447157365439,2.4873350969419725,2.692899533993751
2.3370433845442475,1.5953926643922087,4.381447157365439,2.4873350969419725,2.7971194290587333
2.3370433845442475,1.5953926643922087,4.381447157365439,2.4873350969419725,2.7971194290587333
2.3370433845442475,1.5953926643922087,4.449492083146075,2.4873350969419725,2.7971194290587333
2.3370433845442475,1.5953926643922087,3.7283698824663776,2.4873350969419725,2.5654458482304254
2.3370433845442475,1.5953926643922087,3.631135488489711,2.4873350969419725,2.344573820587599
2.3370433845442475,1.5953926643922087,3.631135488489711,2.4873350969419725,2.5654458482304254
2.3370433845442475,1.6275825226664997,3.631135488489711,2.4873350969419725,2.6205635751145326
2.4037714284532266,1.5249708074734063,3.631135488489711,2.5377141974432957,2.6205635751145326
2.649694309063964,1.5249708074734063,3.631135488489711,2.5377141974432957,2.6205635751145326
2.7472916478312572,1.6275825226664997,3.631135488489711,2.5377141974432957,2.6205635751145326
2.7837277474475024,1.6403782069433972,3.631135488489711,2.5377141974432957,2.6205635751145326
2.7837277474475024,1.714466189056287,3.631135488489711,2.6025770439741795,2.6205635751145326
2.7837277474475024,1.5884555689787594,3.631135488489711,2.4455065428064584,2.6205635751145326
2.6440786463834747,1.5229498455399024,3.631135488489711,2.379355794035938,2.6205635751145326
2.5340536837251824,1.5229498455399024,4.016107062922059,2.379355794035938,2.640240014470737
2.5340536837251824,1.5229498455399024,4.645313736907324,2.379355794035938,2.7096161386053996
2.5340536837251824,1.5229498455399024,4.4447037821743125,2.379355794035938,2.7096161386053996
2.5340536837251824,1.5229498455399024,4.2796549599129765,2.4455065428064584,2.640240014470737
2.5340536837251824,1.5229498455399024,4.032349144439477,2.4455065428064584,2.6394291181996956
2.5340536837251824,1.5229498455399024,3.7358142549385827,2.4455065428064584,2.3699755478839712
2.5340536837251824,1.5229498455399024,3.3306856123583057,2.4455065428064584,2.0517001636654957
2.5340536837251824,1.5229498455399024,2.8508751840991695,2.4455065428064584,2.0517001636654957
2.6440786463834747,1.6217790098210338,2.8508751840991695,2.4455065428064584,2.0517001636654957
2.6597333242693173,1.8638020547071723,2.8508751840991695,2.6827898464687348,2.0517001636654957
2.8724994568283524,2.3494118358327176,2.8508751840991695,3.376089096651003,2.0517001636654957
2.884688762457038,2.6407872788088578,2.8508751840991695,3.3053539920277384,2.0517001636654957
2.884688762457038,2.773806003559143,2.8508751840991695,3.1381244797635532,2.0517001636654957
2.884688762457038,2.9961858567820507,2.8508751840991695,3.1381244797635532,2.0517001636654957
2.884688762457038,3.1046858576317296,2.8508751840991695,3.1381244797635532,2.0517001636654957
2.884688762457038,3.238568390104639,2.8508751840991695,3.1381244797635532,2.1172465764066515
2.884688762457038,3.238568390104639,2.8508751840991695,3.1381244797635532,2.9725096484272067
2.756579870640742,3.238568390104639,3.1863271523264727,3.1381244797635532,3.1405157725058674
3.188377119777808,3.238568390104639,3.8610224975656773,3.1381244797635532,3.147380315675412
3.0524630301291884,3.238568390104639,3.397894991418933,3.1381244797635532,2.9725096484272067
3.0524630301291884,3.238568390104639,3.2735510677193442,3.1381244797635532,2.821072823893315
3.0524630301291884,3.3011816350498457,3.2735510677193442,3.1381244797635532,2.6673699798428974
3.038183693717979,3.238568390104639,3.2735510677193442,3.0844611957830472,2.427508529095355
3.0524630301291884,2.3270069961493483,3.2735510677193442,3.305775903796533,2.4225588188288754
3.0524630301291884,2.3270069961493483,3.2735510677193442,3.305775903796533,2.4208553452469928
3.0524630301291884,2.3270069961493483,3.1615095570828475,3.305775903796533,2.304530988196752
3.0524630301291884,2.3270069961493483,3.022608004626674,3.305775903796533,1.9561757307875351
3.0524630301291884,2.3270069961493483,2.672063734356113,3.305775903796533,1.9160107686023793
3.0369353300836126,2.3270069961493483,2.4384407935779993,3.305775903796533,1.9160107686023793
2.855993445287774,2.3270069961493483,2.114325578403957,3.305775903796533,1.9160107686023793
2.855993445287774,2.3270069961493483,1.514252292182402,3.305775903796533,1.9160107686023793
2.2805957397928416,2.3270069961493483,1.384696411632189,3.305775903796533,1.8985365640898795
1.9832618143792418,2.3270069961493483,1.0893052133806496,3.305775903796533,1.8985365640898795
1.5764003698163842,3.265064730407484,1.0505798741979442,3.48807068374347,1.8985365640898795
1.1450447076156804,3.5787436039888147,1.0505798741979442,4.56395212249062,1.8985365640898795
1.1450447076156804,4.234499069205461,1.0505798741979442,4.94079201182968,1.9160107686023793
1.1450447076156804,4.498360650011397,0.9931035601511039,5.1857509184995,2.0290827185861815
1.1450447076156804,4.87711050104789,0.9931035601511039,5.500492808567764,2.091944149929694
1.1450447076156804,4.994880816873438,0.9679382941495556,5.66739810863937,2.4281271174388914
1.1450447076156804,5.19820186772517,0.9160917800434131,5.872911574751091,2.3737517980830583
1.1450447076156804,5.251408287055314,0.8611624833092602,5.872911574751091,2.3737517980830583
1.1450447076156804,5.19820186772517,0.8611624833092602,5.7973538118519246,2.3737517980830583
1.1602556251453815,5.043742861089028,0.8611624833092602,5.552088335052044,2.400699357775815
1.2344073990113795,4.8379478388639585,0.8611624833092602,4.93392006523976,2.4404932354238973
1.2344073990113795,4.237809679522263,0.8611624833092602,4.0923713813737805,2.4404932354238973
1.3617954863833368,3.3240217092163187,0.8611624833092602,3.0687452569654723,2.4404932354238973
1.2592620036464344,2.053127733639612,0.8611624833092602,2.160312760505552,2.4404932354238973
1.2344073990113795,1.660651563354005,0.8611624833092602,1.6889014601885144,2.4466507359904144
1.2344073990113795,1.5290542695210902,0.8611624833092602,1.5826172736057182,2.4709852631161957
1.2344073990113795,1.5290542695210902,1.1020583384609854,1.5826172736057182,2.4709852631161957
1.2344073990113795,1.5290542695210902,1.4627625998776186,1.5826172736057182,2.7167231537765786
1.2567708386617993,1.3802340308617265,2.32245610691288,1.5826172736057182,2.8967072997429906
1.2592620036464344,1.2018648444409483,3.226232397359703,1.5454838031857976,3.076108621021543
1.3396892030245469,1.2018648444409483,4.106526946765048,1.5454838031857976,3.6059640629710707
1.3396892030245469,1.2018648444409483,4.933230369605108,1.5454838031857976,3.6812842228931943
1.3396892030245469,1.2018648444409483,5.470766154209318,1.276287581349068,3.879273751496549
1.2592620036464344,1.2018648444409483,5.609507494361003,1.2705360399588645,3.9181215133318528
1.3396892030245469,1.2327856159050443,5.629378075325644,1.1361573341210889,3.9181215133318528
1.3396892030245469,1.3179071438914047,5.629378075325644,0.8329230068200294,3.9181215133318528
1.3348337881295962,1.3179071438914047,5.629378075325644,0.6200129546679534,3.961356583122957
1.2409122415438705,1.3179071438914047,5.66427883172086,0.49532543711440397,4.0158388741086455
1.2052485698154773,1.3179071438914047,5.66427883172086,0.4132964641122271,4.0158388741086455
1.0420275966631514,1.4297953000780685,5.699914111891975,0.39608059622408714,4.0158388741086455
1.04032674195951,1.4479347569029617,5.76522720629993,0.36566052551700257,4.005966159979933
1.04032674195951,1.4479347569029617,5.847658053278772,0.30716795762588006,4.0158388741086455
1.04032674195951,1.4668622509168898,6.014491778652272,0.30450076196512554,4.101769938071884
0.998210717130196,1.4668622509168898,6.069680074312698,0.28598227821934696,4.1183474365339094
0.9894431876490148,1.4668622509168898,6.095269355143861,0.25522895955301456,4.207144494137221
0.9750103165126655,1.4482211634681847,6.1258953244454295,0.22117197815975725,4.207144494137221
0.9256292745028093,1.4297953000780685,6.1351871546290155,0.21216148931132423,4.212954658785462
0.9147031437453562,1.370428670097883,6.146653520048493,0.2117352645790497,4.212954658785462
0.884544469889822,1.370428670097883,6.1351871546290155,0.1868379121825109,4.212954658785462
0.8814839646243072,1.370428670097883,6.132478163170841,0.1762634077717386,4.212954658785462
0.8814839646243072,1.370428670097883,6.1258953244454295,0.17560488947310732,4.223152697855512
0.8299281228076079,1.328496766077628,6.117354734989542,0.17560488947310732,4.30497880925927
0.722769073620376,1.3685466799455337,6.091950681957744,0.17560488947310732,4.306019941809959
0.5541059778139416,1.3685466799455337,6.086797006165038,0.17560488947310732,4.306019941809959
0.4031732223473339,1.3685466799455337,6.07584234955518,0.17560488947310732,4.306019941809959
0.4031732223473339,1.3685466799455337,6.036209850076495,0.17560488947310732,4.321212767563709
0.4031732223473339,1.3685466799455337,6.015811025888019,0.17910623210516624,4.338554282718178
0.4031732223473339,1.3942315196405293,5.912394956037945,0.17910623210516624,4.338554282718178
0.4031732223473339,1.4239166731816855,5.749055915561063,0.1868379121825109,4.338554282718178
0.4031732223473339,1.4239166731816855,5.64846544369934,0.19355006147959167,4.306019941809959
0.4031732223473339,1.4239166731816855,5.0847223109990365,0.2466754478517143,4.107353526009004
0.49388605334789487,1.4739889463898146,3.729602513482714,0.2475550760807874,3.573422326142636
0.7826178064032195,1.512960258086349,2.2315782986197448,0.37524284202750896,3.2769143892931156
1.1198681693887844,1.5202314575134408,1.836534555537645,0.43132526480558636,2.950397324580869
1.395357593550948,1.531126867194383,1.3001534313149552,0.6327076826530308,2.629062506937489
1.2668066907065856,1.5592491166120264,1.0545634704871327,0.8719929084632866,2.629062506937489
1.2502303773584107,1.6262831183067186,0.9893496877201462,1.2710302419767723,2.629062506937489
1.2668066907065856,1.6508233263824275,0.9819906767515253,1.6042909091497433,2.629062506937489
1.2668066907065856,2.2894710119933634,0.9398983454753324,1.9560517055563684,2.629062506937489
1.018122608825672,2.311554450001796,0.7791887986139537,2.4784648609615076,2.629062506937489
0.7642510090616037,3.658152054367845,0.7732744887958811,3.6227549869291304,2.629062506937489
0.7082774971709478,4.909337652645534,0.7732744887958811,5.1470236150018005,2.629062506937489
0.7074622197078304,5.344451000465401,0.7015515861974057,5.868893400159094,2.629062506937489
0.7020017095549079,5.565707202248174,0.7015515861974057,5.962723285645343,2.7620455216020106
0.7020017095549079,5.626602375914592,0.7015515861974057,6.066496237078858,2.784561693812414
0.7020017095549079,5.654580412131187,0.7015515861974057,6.16881359278488,2.8362255908853804
0.7020017095549079,5.7752175537595125,0.7015515861974057,6.215802949603732,2.827108482499824
0.7020017095549079,5.804099057362499,0.7015515861974057,6.199542936193375,2.827108482499824
0.7074622197078304,5.794501641930229,0.7015515861974057,6.199542936193375,2.8362255908853804
0.7082774971709478,5.794501641930229,0.7015515861974057,6.181767493059284,2.8660389274647993
0.7893601268449005,5.794501641930229,0.6756430138429798,6.166129354692501,2.827108482499824
0.8186540170574078,5.794501641930229,0.6756430138429798,6.166129354692501,2.75708211380736
0.8500007446581991,5.794501641930229,0.7338737456156473,6.166129354692501,2.7279844530337125
0.8554656848885975,5.759167496684695,0.7590654489678168,6.163249300139464,2.7279844530337125
0.8642712915875845,5.699096296728123,0.679068177725569,6.1499647646795825,2.7279844530337125
0.8759341910558538,5.699096296728123,0.6756430138429798,6.147057057501766,2.7784554897737714
0.9223933890676871,5.650735758544774,0.6471766580240684,6.139049523698718,2.6610255819305992
0.9798099590762694,5.6233085579250774,0.6471766580240684,6.128616903489681,2.605943241267525
0.9798099590762694,5.59028940012484,0.6471766580240684,6.128616903489681,2.605943241267525
0.9798099590762694,5.59028940012484,0.6471766580240684,6.128616903489681,2.605943241267525
0.9798099590762694,5.567476247030789,0.6471766580240684,6.128616903489681,2.605943241267525
0.9798099590762694,5.564420696841852,0.6471766580240684,6.109262778675249,2.556214805337561
1.0311104683549037,5.52344770738995,0.610966129953676,6.0941852053641,2.4656672403187265
1.0566220988561035,5.492452546828606,0.6088266603698743,6.0941852053641,2.3503725115955487
1.0766930355719109,5.45656269109498,0.5655041113256993,6.0941852053641,2.3503725115955487
1.0766930355719109,5.45656269109498,0.0,6.0941852053641,2.3503725115955487
1.0809669782944513,5.45656269109498,0.0,6.0941852053641,2.3503725115955487
1.0809669782944513,5.45656269109498,0.0,6.0941852053641,2.3913142420920726
1.142799670960938,5.45656269109498,0.0,6.099862316712587,2.3503725115955487
1.0809669782944513,5.45656269109498,0.0,6.099862316712587,2.228748446797306
1.0730066694021383,5.45656269109498,0.0,6.099862316712587,2.228748446797306
1.0730066694021383,5.45656269109498,0.0,6.099862316712587,2.228748446797306
1.0730066694021383,5.45656269109498,0.0,6.11068566666362,2.228748446797306
1.0263841373731466,5.5168144281178435,0.0,6.1316871561518616,2.4498439163614893
1.0263841373731466,5.5168144281178435,0.0,6.11068566666362,2.5097070912212125
1.0263841373731466,5.517656556136306,0.0,6.02179118620711,2.5633496476763584
1.0263841373731466,5.474095770823512,0.0,5.634143303520967,2.5633496476763584
1.0263841373731466,4.74981448044636,0.0,4.564646432335144,2.5633496476763584
1.0571909422080314,3.9721481435443096,0.0,3.172804195106333,2.5633496476763584
1.0263841373731466,2.921161262880602,0.0,2.1410076420365924,2.7380530545673114
1.0571909422080314,2.1459508007270647,0.4636046384629133,2.117767954235873,2.7801910708953916
1.0571909422080314,1.6463021415916907,0.7082142317965301,1.9648965683113737,3.0274467440465025
1.0571909422080314,1.612610601853739,0.8871581096866231,1.9648965683113737,3.2351040459401323
1.0748336276725177,1.612610601853739,1.2355153224700026,1.9648965683113737,3.0509498523025105
1.4998075485427034,1.612610601853739,1.6460595530013256,1.9648965683113737,3.0274467440465025
1.5826002158008006,1.612610601853739,2.1903943390578493,1.9648965683113737,3.0274467440465025
1.6127199906388812,1.612610601853739,2.411963965522986,1.9648965683113737,2.7908416552242707
1.6127199906388812,1.612610601853739,2.0063941055691674,1.9648965683113737,2.1794020288574676
1.7042323123218668,1.612610601853739,2.0063941055691674,1.9648965683113737,1.7815707552845417
1.8607380950570205,1.612610601853739,2.0063941055691674,1.9648965683113737,1.6860015504044037
1.8629405892399675,1.6605014570206682,2.0063941055691674,2.1123071058685827,1.5575635356003616
1.8695954827256298,1.9046719805098462,2.0063941055691674,2.119687308563418,1.5575635356003616
1.9955562993972236,2.3574305229872796,2.0063941055691674,2.75710106868318,1.3629224538937807
1.9955562993972236,2.53471556537939,2.0063941055691674,3.31045544257882,1.3286605058052612
1.9955562993972236,3.5656507690184758,2.0063941055691674,3.8771565250520736,1.3286605058052612
1.9955562993972236,3.6513927099412693,1.902705630308852,4.599545616530468,1.3286605058052612
1.8811575289255376,3.6513927099412693,1.4424923182574971,4.599545616530468,1.3286605058052612
1.8695954827256298,3.6513927099412693,1.368395244667336,4.599545616530468,1.3286605058052612
1.8695954827256298,3.6513927099412693,1.0986447568201863,4.599545616530468,1.3286605058052612
1.6832893457454774,3.6513927099412693,0.9728083370604503,4.599545616530468,1.3286605058052612
1.3142131079085937,3.677085973374009,0.9728083370604503,4.599545616530468,1.3629224538937807
1.3142131079085937,4.061564420586279,0.9728083370604503,4.746168663744586,1.5268735353279723
1.3142131079085937,4.061564420586279,0.9728083370604503,5.095454757077925,1.5268735353279723
1.3142131079085937,4.224577977830039,0.9728083370604503,4.948341690270922,2.101990141037155
1.3142131079085937,4.137127344400804,0.9728083370604503,4.948341690270922,2.103669867521212
1.3142131079085937,4.155850790727651,0.9728083370604503,4.948341690270922,2.103669867521212
1.3142131079085937,4.029378742937334,0.9728083370604503,4.922950817029309,1.6651794760744913
1.3142131079085937,3.731609129301626,0.9728083370604503,4.851571144648392,1.6651794760744913
1.3142131079085937,3.731609129301626,1.4608004086500481,4.851571144648392,1.6651794760744913
1.6423412527617505,3.731609129301626,1.4888848824317895,4.851571144648392,1.6651794760744913
1.8803733113508538,3.731609129301626,1.6732908108787656,4.851571144648392,1.6651794760744913
1.8803733113508538,3.731609129301626,1.745575765027162,4.851571144648392,1.6651794760744913
2.0439181256402588,3.731609129301626,1.745575765027162,4.851571144648392,1.6651794760744913
2.4673656096446557,3.731609129301626,1.745575765027162,4.878298041810155,1.6651794760744913
2.219397830091105,3.731609129301626,1.745575765027162,4.883247970137557,1.6651794760744913
2.0970570584307526,3.8988167355564727,1.6262036453531779,4.883247970137557,1.690274423542838
1.8803733113508538,4.0585803524396855,1.6079100856971018,4.883247970137557,1.76829941695285
1.8429860351239826,4.2027295193924274,1.4255269724795911,4.883247970137557,2.154478009360606
1.6874768255075314,4.837446815927542,1.2130063315226003,5.405922776235631,2.2309133258411737
1.6665754857739812,4.950645262076482,1.2130063315226003,5.533795157907358,2.2654738200741336
1.6665754857739812,4.950645262076482,1.2130063315226003,5.533795157907358,2.2654738200741336
1.6665754857739812,4.950645262076482,1.2130063315226003,5.533795157907358,2.3056590282718523
1.6665754857739812,4.986466157146369,1.2130063315226003,5.533795157907358,2.410210583507981
1.6665754857739812,4.950645262076482,1.2130063315226003,5.487509046496402,2.439518871271919
1.6665754857739812,4.833151670052898,1.2130063315226003,5.02984941661287,2.439518871271919
1.6665754857739812,3.976999788628002,1.2130063315226003,3.943833750530164,2.439518871271919
1.6874768255075314,3.1224979275781743,1.2821801448477623,2.7473725628224224,2.5940502989174807
1.9853590807542845,2.503858850891172,1.397783963838568,2.7473725628224224,2.632605145040942
1.996833374161325,2.245506815243144,1.6086451521139413,2.7473725628224224,2.7452334321014833
1.996833374161325,1.914135913657084,1.8221769367252634,2.1547372670941214,2.8674570765668683
1.996833374161325,1.5199336492922908,1.9732600625146235,1.7308573390502486,2.8674570765668683
1.996833374161325,1.34333630860725,2.223241724624783,1.6432061260626187,2.8674570765668683
1.9263328126252284,1.235414390864881,2.675212698818401,1.5372472655634024,2.964495571469503
1.879237987887653,1.1510796731516701,3.345722414272295,1.5372472655634024,3.1263613845167644
1.764484646233828,1.030229662036021,3.8500155374777147,1.5372472655634024,3.2341081506424896
1.6727319048773142,1.030229662036021,4.829040175063959,1.267093983960718,3.2341081506424896
1.4523197734210789,0.9919824941037919,5.268681191191126,1.1903299628921433,3.2341081506424896
1.336813285710342,0.9467224384590865,5.268681191191126,1.1771275745410066,3.4724928512222104
1.336813285710342,0.9123148502183666,5.30077067138362,1.1185859461114258,3.561723039399768
1.336813285710342,0.9123148502183666,5.714169514672163,1.095354294161896,3.6766886898802382
1.3356386248064533,0.9123148502183666,5.802492501308427,1.074217191793041,3.6766886898802382
1.2066840812205464,0.9123148502183666,5.818765048694604,0.9406576243783921,3.769208036497369
1.0319366464481305,0.9123148502183666,5.818765048694604,0.7153125879656177,3.866857759287532
0.980136549207447,0.9467224384590865,5.871131426005106,0.6235848972207072,3.9026487536213303
0.9332169587738313,0.9919824941037919,5.9139333098000915,0.6090978231462795,4.017996133608418
0.9332169587738313,1.0450562528477951,5.956079148556096,0.6024631059308639,4.017996133608418
0.9332169587738313,1.1218635030209476,5.956079148556096,0.6024631059308639,4.017996133608418
0.9332169587738313,1.3006713315772682,5.925949895394021,0.6024631059308639,4.046287461995017
0.9332169587738313,1.3006713315772682,5.73772524107323,0.6024631059308639,4.1207725431455
0.9332169587738313,1.3006713315772682,5.603506193854818,0.6024631059308639,4.215656093282115
0.9332169587738313,1.2375957489364846,5.603506193854818,0.6024631059308639,4.046287461995017
0.9332169587738313,1.2375957489364846,5.603506193854818,0.6024631059308639,3.5104567448845314
1.0226140419356642,1.2375957489364846,5.603506193854818,0.6024631059308639,3.5104567448845314
0.9388362120253285,1.2021032834439858,5.603506193854818,0.6090978231462795,3.5104567448845314
0.9388362120253285,1.2375957489364846,5.603506193854818,0.7023144091564603,3.5104567448845314
0.9388362120253285,1.2021032834439858,5.603506193854818,0.594295825800958,3.5104567448845314
0.9128973495195145,1.1975246498710164,5.603506193854818,0.620542089910471,3.5104567448845314
0.824091469183898,1.1975246498710164,5.603506193854818,0.620542089910471,3.5104567448845314
0.824091469183898,1.1975246498710164,5.620096825567482,0.620542089910471,3.5104567448845314
0.824091469183898,1.1975246498710164,5.620096825567482,0.620542089910471,3.5104567448845314
0.824091469183898,1.1975246498710164,5.5289819496521195,0.620542089910471,3.811067361574415
0.824091469183898,1.1733324109212497,5.3925939717620475,0.620542089910471,3.811067361574415
0.824091469183898,1.1733324109212497,5.253631479447511,0.620542089910471,3.811067361574415
0.824091469183898,1.1733324109212497,5.195348784799125,0.620542089910471,3.0438034297156107
0.824091469183898,1.1733324109212497,4.6696873029949675,0.620542089910471,2.9069537494085527
1.5579802382900612,1.1733324109212497,4.335436963156021,0.620542089910471,2.9069537494085527
1.9228743730374565,1.2512848095672984,4.335436963156021,0.8036425208689936,2.9069537494085527
2.0022242693168537,1.2719293492790886,4.335436963156021,1.14053604091607,2.725243155315044
2.2881302107631063,1.2719293492790886,4.335436963156021,1.4297899523505249,2.674526974676166
1.9938762482584664,1.2719293492790886,4.335436963156021,2.0802738306053667,2.674526974676166
1.9938762482584664,1.2719293492790886,4.335436963156021,2.1667754785608246,2.674526974676166
1.80609828484886,1.4628716164589288,4.335436963156021,2.101771586665985,2.674526974676166
1.8004200704800566,1.472122281611193,4.335436963156021,1.7139803812458014,2.674526974676166
1.524572874873953,1.472122281611193,4.335436963156021,1.329483659742557,2.725243155315044
1.5047472389432475,1.4628716164589288,4.335436963156021,1.315715404992584,2.818712330789707
1.5047472389432475,1.4628716164589288,4.451074991949269,1.315715404992584,3.111119263088091
1.5047472389432475,1.4628716164589288,4.8640341744365445,1.315715404992584,3.166475436940714
1.5047472389432475,1.4628716164589288,4.948818747677203,1.315715404992584,3.166475436940714
1.5047472389432475,1.4628716164589288,4.884579895057995,1.315715404992584,3.0554798973272286
1.5047472389432475,1.4628716164589288,4.747917660956611,1.315715404992584,3.0554798973272286
1.5047472389432475,1.4628716164589288,4.6798746744498025,1.315715404992584,3.0554798973272286
1.5047472389432475,1.463714547184158,4.637564703493453,1.315715404992584,3.0554798973272286
1.7742987176257277,1.6633513061844332,4.637564703493453,1.315715404992584,3.0554798973272286
1.7742987176257277,1.6633513061844332,4.637564703493453,1.315715404992584,3.0554798973272286
1.8061671843075955,1.6633513061844332,4.637564703493453,1.4260062726128044,3.0554798973272286
1.961698865821774,1.6633513061844332,4.637564703493453,1.93464731714006,3.0554798973272286
2.0684540708633623,1.7855848643769094,4.637564703493453,2.4276473731331567,3.0554798973272286
2.0684540708633623,1.8033436381605763,4.257323213079052,2.4499000864611062,3.0554798973272286
2.0684540708633623,1.8033436381605763,3.7007793056698133,2.4499000864611062,3.0554798973272286
2.0684540708633623,1.8033436381605763,3.6053907816298936,2.4499000864611062,3.2760969181464135
2.0684540708633623,1.8033436381605763,3.6053907816298936,2.4499000864611062,3.4974485410076612
2.0684540708633623,1.8033436381605763,3.6053907816298936,2.4499000864611062,3.4760981258648935
2.2007484778200275,1.8033436381605763,3.6053907816298936,2.4499000864611062,3.4974485410076612
2.4782308579372283,1.8033436381605763,3.6053907816298936,2.4499000864611062,3.400561060953434
2.800695328265791,2.15961945414355,3.6053907816298936,2.4499000864611062,3.2333489534144024
2.697033167454159,2.1903350008992777,3.6053907816298936,2.3504195446814635,3.2333489534144024
2.697033167454159,2.0380113655644436,3.6053907816298936,2.2211636850708083,3.106622592721789
2.5536874754240753,1.5167169559781486,3.6053907816298936,2.1875963141976165,3.0943750091149247
2.2191633233352213,1.3880791938987433,3.6053907816298936,1.9205436876696327,3.0943750091149247
2.183610943608164,1.3880791938987433,3.7802807906073266,1.8009338338065077,3.0943750091149247
1.9440173205334974,1.2646264769062268,4.058335824002881,1.8009338338065077,3.0943750091149247
1.8671229426449845,1.2149220794465334,4.661118858893153,1.8009338338065077,3.0943750091149247
1.799431704074126,1.165055361328098,4.661118858893153,1.8009338338065077,3.0943750091149247
1.799431704074126,1.1299027149664131,4.661118858893153,1.8009338338065077,3.0286888358540915
1.799431704074126,1.1299027149664131,4.9141355702993135,1.8009338338065077,3.0286888358540915
1.799431704074126,1.1299027149664131,5.245741707064657,1.8009338338065077,2.7908710821996494
1.799431704074126,1.1299027149664131,4.748661467445978,1.8009338338065077,2.78800989919075
1.799431704074126,1.1299027149664131,4.5721135275831095,1.8009338338065077,2.78800989919075
1.799431704074126,1.1299027149664131,4.5721135275831095,1.895504563130668,2.7490164615595525
1.8586223243767246,1.1299027149664131,4.5721135275831095,1.9027067344097337,2.635124931178404
2.0209955283879983,1.1299027149664131,4.5721135275831095,1.9305274917664976,2.635124931178404
2.280292183737284,1.2149220794465334,4.5721135275831095,1.946649595583003,2.635124931178404
2.3343105884438264,1.6095026937194499,4.503982130409138,1.946649595583003,2.635124931178404
2.423653534413952,1.6095026937194499,4.503982130409138,2.176921344367089,2.635124931178404
2.423653534413952,1.6095026937194499,4.503982130409138,2.6419293422289205,2.6786710913581366
2.423653534413952,1.5717274701740465,4.503982130409138,2.6607840327260037,2.6369373407279433
2.423653534413952,1.5332380819578004,4.503982130409138,2.6607840327260037,2.6369373407279433
2.423653534413952,1.5332380819578004,4.358786116324548,2.6607840327260037,2.6369373407279433
2.423653534413952,1.5332380819578004,3.692100843205371,2.6607840327260037,2.507944890209416
2.423653534413952,1.5332380819578004,3.2258918073121654,2.6607840327260037,2.0294498408351402
2.423653534413952,1.5332380819578004,3.2258918073121654,2.6607840327260037,1.8959301220677716
2.423653534413952,1.5332380819578004,3.2258918073121654,2.6607840327260037,1.7580807360183572
2.7063368043741436,1.5332380819578004,3.2258918073121654,2.6607840327260037,1.7580807360183572
2.377509620218937,1.5332380819578004,3.2258918073121654,2.6607840327260037,1.7580807360183572
2.1129728690278307,1.5717274701740465,3.2258918073121654,2.546320755731787,1.7580807360183572
1.5181466257572884,1.7336223891640086,3.2258918073121654,2.0965098561857856,1.7580807360183572
1.5181466257572884,1.5717719400338916,3.2258918073121654,1.8340911679467597,1.7580807360183572
1.5181466257572884,1.5717719400338916,3.2258918073121654,1.741346653631713,1.7580807360183572
1.5181466257572884,1.5717719400338916,3.2258918073121654,1.741346653631713,1.8959301220677716
1.5181466257572884,1.5717719400338916,3.5766745368792985,1.741346653631713,1.9120245742273585
1.5181466257572884,1.5717719400338916,3.884094950618414,1.741346653631713,2.0627974939960856
1.5181466257572884,1.5717719400338916,3.44267215440741,1.741346653631713,3.16269006277019
1.5181466257572884,1.5717719400338916,3.430485602776731,1.741346653631713,3.6008297405930163
1.5181466257572884,1.5717719400338916,3.430485602776731,1.741346653631713,3.6008297405930163
1.5325191506509832,1.5717719400338916,3.430485602776731,1.741346653631713,3.5371655250933025
1.630128896895831,1.5717719400338916,3.430485602776731,1.741346653631713,3.2354608877955506
2.514330558976689,1.7415779789526475,3.2387384165682533,1.741346653631713,2.669666866423522
2.5682364849592436,1.8803027715264626,2.657082776840401,2.1452642275765474,1.992967151406312
2.5682364849592436,2.890063108994811,2.657082776840401,2.6330461880791076,1.9590617812058984
2.996530212501691,3.3993415504317794,2.657082776840401,3.889143500582349,1.8219347512406678
2.514330558976689,3.333683533866869,2.657082776840401,3.6847000189359833,1.8219347512406678
2.07669686294689,3.0071004507075085,2.657082776840401,3.1170437457065647,1.8219347512406678
2.0161254089739185,2.553717169038634,2.657082776840401,3.0303547564487285,1.8219347512406678
2.0161254089739185,2.2449492961188935,2.657082776840401,2.921797516923617,1.8219347512406678
2.0161254089739185,1.8618847991025977,2.657082776840401,2.921797516923617,1.8219347512406678
2.0161254089739185,1.8618847991025977,2.657082776840401,2.921797516923617,1.8219347512406678
2.0161254089739185,1.8618847991025977,2.657082776840401,2.921797516923617,1.8219347512406678
2.0161254089739185,1.8618847991025977,3.018570146562012,2.921797516923617,1.8219347512406678
2.0161254089739185,1.8618847991025977,3.018570146562012,2.921797516923617,1.6652836173349315
2.0161254089739185,1.8618847991025977,2.834303074060103,2.921797516923617,1.6267886834813634
2.435151115554876,1.8618847991025977,2.780621546851999,2.921797516923617,1.6267886834813634
2.5895671564527825,1.8618847991025977,2.780621546851999,2.921797516923617,1.6267886834813634
2.686764094288814,1.8618847991025977,2.780621546851999,2.9647191498048064,1.6267886834813634
2.8034595011028736,1.9779492337315085,2.780621546851999,2.9936199966900383,1.6267886834813634
2.949887638957249,2.345734308560167,2.780621546851999,3.3257112070985095,1.4729885627144037
3.088423490322565,2.4879892448881313,2.2707902928066233,3.5493099893601676,1.4704925364261774
2.8034595011028736,2.6900820841325666,2.226522441298357,3.632340341655699,1.3381668954212236
2.8034595011028736,2.6900820841325666,2.226522441298357,3.632340341655699,1.3381668954212236
2.7625204326700854,2.6900820841325666,2.226522441298357,3.632340341655699,1.3381668954212236
2.8034595011028736,2.6900820841325666,2.2707902928066233,3.632340341655699,1.3381668954212236
2.864294107710816,2.6900820841325666,2.4446612017835787,3.632340341655699,1.4729885627144037
2.7625204326700854,2.6900820841325666,2.3947295258128505,3.632340341655699,1.576067827960937
2.7625204326700854,3.140459992962721,2.254483179382662,3.632340341655699,1.576067827960937
2.7625204326700854,3.4762916365879835,2.254483179382662,4.057755452050668,1.576067827960937
2.7625204326700854,3.8305445659019104,2.254483179382662,4.749988963228202,1.576067827960937
2.5890560656742205,3.847205111994387,2.0166471743532517,4.749988963228202,1.691943730787978
2.5890560656742205,3.847205111994387,1.779910733200245,4.749988963228202,1.807155015825244
2.5530551100934993,3.847205111994387,1.3383025190410143,4.749988963228202,1.8185826385642734
1.6846517019185547,4.0584721462412965,1.3295789023265268,4.754696025656674,1.8869148599766548
1.5730393012492798,4.233078019566358,1.2549863653829916,5.085727863582518,1.9284392221223416
1.5730393012492798,4.268061696788684,1.152602438091395,5.2812598575528416,1.9284392221223416
1.5730393012492798,4.328701416503329,1.1445082222671978,5.2812598575528416,2.0062552329125856
1.5200129939473483,4.328701416503329,1.1080308820975118,5.2812598575528416,2.1220177646048155
1.437624034955761,4.590255643603083,1.0579322265130067,5.2812598575528416,2.199505181545421
1.4091443427956984,5.040968470636009,1.0579322265130067,5.528013857619702,2.3816234125117672
1.4091443427956984,5.126846756158672,1.0579322265130067,5.7377316393520745,2.3816234125117672
1.4091443427956984,5.040968470636009,1.0579322265130067,5.264432153451233,2.199505181545421
1.4367270706419997,4.3133614545592955,1.0579322265130067,4.60522592440286,2.3346990461258454
1.4367270706419997,3.7593950648664043,1.0579322265130067,3.7458676425701745,2.475714751470747
1.4367270706419997,3.0289297409107463,1.0805387324251106,2.8631793660472566,2.475714751470747
1.4367270706419997,2.1319288700614565,1.0805387324251106,1.8880090208511386,2.475714751470747
1.3995193417482585,1.6324109664171373,1.0805387324251106,1.7348815726395366,2.475714751470747
1.3995193417482585,1.6324109664171373,1.1719059355648904,1.7348815726395366,2.475714751470747
1.3995193417482585,1.6324109664171373,1.2057012265074876,1.7348815726395366,2.475714751470747
1.466897239587035,1.4696859141083443,1.8059306369694832,1.7348815726395366,2.5539715961866167
1.658800809299248,1.2843037219102342,2.8253437229953926,1.7348815726395366,2.616132520461491
1.7731501860377876,1.146116273114675,3.5711222638662825,1.7348815726395366,3.3424563695548004
1.8795808754001788,1.08306997087908,4.354569923583949,1.7348815726395366,3.3424563695548004
1.8795808754001788,1.08306997087908,5.111482578683353,1.7348815726395366,3.3424563695548004
1.8795808754001788,1.08306997087908,5.262214002432089,1.7348815726395366,3.361560082293784
1.3830297152996367,1.08306997087908,5.289888800254736,1.7348815726395366,3.361560082293784
1.3830297152996367,1.08306997087908,5.289888800254736,1.83097179882645,3.361560082293784
1.299079724909439,1.08306997087908,5.289888800254736,1.4308679654450898,3.361560082293784
1.299079724909439,1.08306997087908,5.289888800254736,1.3091290939052629,3.361560082293784
1.299079724909439,1.08306997087908,5.289888800254736,1.2260915847660931,3.361560082293784
1.299079724909439,1.1018218580967223,5.347753457040011,0.9293910176868663,3.361560082293784
1.2524440933095924,1.1018218580967223,5.385437576302142,0.8201406864322177,3.361560082293784
1.222171753062503,1.139492664760882,5.428824364085935,0.621163728050188,3.361560082293784
1.1149259210556148,1.160336670798026,5.454857078996924,0.5055849549333502,3.562300670040248
0.965906110030321,1.3332343598610175,5.606459506033828,0.4711581829180127,3.71467525170495
0.965906110030321,1.3332343598610175,5.734874610871591,0.4195385037640488,4.030031918704431
1.0953509602097011,1.2658425542595078,5.892284242969378,0.29408541739517857,4.088946269855609
1.085239922708872,1.2658425542595078,5.992542025456085,0.15226255891959548,4.088946269855609
0.9549541479383392,1.2658425542595078,5.994956523911989,0.12091909894472885,4.088946269855609
0.9475808841996505,1.4312294226679227,6.029298535800411,0.09626453180862488,4.08922042447624
0.875112470747821,1.3870266031504177,6.099598189317434,0.09626453180862488,4.165371096673503
0.875112470747821,1.3824016689501704,6.11444945371442,0.09626453180862488,4.273784279428454
0.7416379854823397,1.3824016689501704,6.121493389885315,0.09626453180862488,4.287286995547053
0.5338729486775514,1.3824016689501704,6.124728141458847,0.09626453180862488,4.287286995547053
0.45422270930779984,1.3824016689501704,6.11444945371442,0.09626453180862488,4.287286995547053
0.44714109973248656,1.3539546735582877,6.09619492184573,0.09626453180862488,4.309287516170047
0.43562735787447787,1.3539546735582877,6.052302916973279,0.09626453180862488,4.309287516170047
0.43562735787447787,1.3824016689501704,5.9863535623960376,0.09957963851338042,4.309287516170047
0.43562735787447787,1.3539546735582877,5.939896590046899,0.12576895519022832,4.351120300083107
0.43562735787447787,1.3539546735582877,5.906305176444515,0.1328559444178882,4.351120300083107
0.43562735787447787,1.3539546735582877,5.780769387416464,0.14865539171775252,4.351120300083107
0.45422270930779984,1.3539546735582877,5.112445108600373,0.17260168986846236,4.130862883812208
0.6518517072062204,1.3953783729247873,3.7818025398153665,0.21947011730928673,3.942465549495176
0.7134739985775335,1.4052560048161324,2.572624381221839,0.36168874676944507,3.6745220144123283
0.7395788284569166,1.4052560048161324,1.9018605313260482,0.5675778652197581,3.1011994201867554
1.0866818827974278,1.4052560048161324,1.6008408078872536,0.7124116008145228,2.9302828969533588
1.0765449072763744,1.6924555366928244,1.336079101473379,0.834047492228802,2.7354346338346565
1.0866818827974278,1.880271985081646,0.7108881295005648,1.1506996220547685,2.661724596188453
1.0765449072763744,2.028705019840892,0.6806804230111535,1.2697668803000914,2.661724596188453
1.0866818827974278,2.15324847292391,0.5828477174569666,1.7100856209307078,2.661724596188453
1.0765449072763744,2.4547214039641414,0.5828477174569666,2.2615595927918903,2.661724596188453
0.9904481804205753,3.474778802664174,0.5828477174569666,3.5672936125252597,2.661724596188453
0.8299854586057599,4.373412097258628,0.5828477174569666,4.856047399580291,2.649772773463197
0.7662995319063362,5.302265818764779,0.5828477174569666,5.735520876626849,2.649772773463197
0.7662995319063362,5.597416763241638,0.5828477174569666,6.032834866912232,2.649772773463197
0.7662995319063362,5.67777810586688,0.5828477174569666,6.126641717296322,2.649772773463197
0.7662995319063362,5.714496830894118,0.5828477174569666,6.155785044756648,2.6953067358159597
0.7662995319063362,5.758576269903464,0.5828477174569666,6.178934287365432,2.728303801933809
0.7662995319063362,5.7717505107671565,0.6539117246460653,6.180706490725368,2.844482150288214
0.7662995319063362,5.786803045027035,0.6752832916569098,6.18701067870205,2.7683522328759866
0.7662995319063362,5.792886225232204,0.7122637900755497,6.175663496460025,2.7683522328759866
0.7815714479859281,5.792886225232204,0.7122637900755497,6.175663496460025,2.7464560327495793
0.8095965413355611,5.7717505107671565,0.7122637900755497,6.17080715382038,2.7464560327495793
0.8300717532088564,5.7717505107671565,0.7122637900755497,6.158704799172722,2.7464560327495793
0.9358996138361259,5.7717505107671565,0.7122637900755497,6.158704799172722,2.7464560327495793
0.998067473523211,5.769924691105412,0.7646309380143838,6.154443403291948,2.7464560327495793
1.0015908217675769,5.722510043856405,0.8453918394624826,5.94081953485582,2.7464560327495793
1.028597567958497,5.444915078862158,0.9045791185492993,5.600441326326932,2.7464560327495793
1.0372113341042637,5.168861678773147,0.9085798855824103,5.262734118887008,2.7421770571696125
1.0598671904798787,4.705745458228202,0.9491308777539109,5.150269819933798,2.6323859276110677
1.0991256512706942,4.527947095851828,0.9491308777539109,5.098307546859406,2.3124748823225083
1.1384322294733418,4.4522169664239195,0.9491308777539109,5.098307546859406,2.3124748823225083
1.2455381066905937,4.4522169664239195,1.1984002275864631,5.098307546859406,2.3124748823225083
1.4801923502933902,4.4522169664239195,1.11891329700143,5.098307546859406,2.3124748823225083
1.4801923502933902,4.4522169664239195,1.0652582938201756,5.098307546859406,2.3124748823225083
1.4801923502933902,4.4522169664239195,1.007173955078878,5.098307546859406,2.3124748823225083
1.4801923502933902,4.4522169664239195,0.9475476498321708,5.098307546859406,2.3124748823225083
0.9156214571914809,4.4522169664239195,0.9219486506953746,5.098307546859406,2.3124748823225083
0.8214635787817949,4.4522169664239195,0.9219486506953746,5.098307546859406,2.3124748823225083
0.8214635787817949,4.4522169664239195,0.831541688497794,5.1516218291194535,2.3319427393280465
0.8214635787817949,4.840763353636999,0.831541688497794,5.2219287472834575,2.3972077775867024
0.8214635787817949,5.206187484885536,0.831541688497794,5.699919433019924,2.3972077775867024
0.8214635787817949,5.504616738691494,0.831541688497794,5.932701901433718,2.641078982860361
0.8214635787817949,5.646432900293169,0.831541688497794,6.029705385707506,2.7819801890422196
0.8214635787817949,5.669687876971107,0.831541688497794,6.029705385707506,2.7819801890422196
0.8214635787817949,5.644028256252156,0.8613339038337258,5.941086886457794,2.7819801890422196
1.0683633544206081,5.455167980878127,0.8997497281872731,5.886890601319347,2.7002006075967224
1.1083854449466266,5.358601074769674,0.9462561845550006,5.886890601319347,2.5050383401396528
1.1390155186351096,5.235292852202676,1.032424208420079,5.886890601319347,2.326384281988784
1.2152830556470673,5.235292852202676,1.060437105658651,5.886890601319347,2.326384281988784
1.2862732527591483,5.219818010854113,1.080024345327792,5.807814276276875,2.326384281988784
1.5719436010942645,5.138217627166843,1.231480254873791,5.80115396868189,2.326384281988784
1.5719436010942645,5.138217627166843,1.2671210761109424,5.80115396868189,2.25203128235558
1.5719436010942645,5.09803604145214,1.270985819036868,5.80115396868189,2.1984911850891744
1.6214581286307552,5.037157351459765,1.2578867673294465,5.80115396868189,1.9960175420589579
1.6214581286307552,5.037157351459765,1.1846586754092565,5.80115396868189,1.9873082434400673
1.6214581286307552,5.004633462418774,1.1846586754092565,5.746116597497197,1.9873082434400673
1.6214581286307552,5.004633462418774,1.1846586754092565,5.746116597497197,1.9873082434400673
1.6214581286307552,5.004633462418774,1.2368565770426927,5.746116597497197,1.9873082434400673
1.8947107596557167,5.004633462418774,1.2368565770426927,5.746116597497197,1.8613285553656052
1.8947107596557167,4.942258708085058,1.2368565770426927,5.741669820790908,1.7960412378801545
1.8947107596557167,4.738189831376463,1.2368565770426927,5.249067232847851,1.7960412378801545
1.8947107596557167,4.533446178262261,1.2368565770426927,5.18870376457805,1.7960412378801545
2.028198758043541,4.3890970475133955,1.2368565770426927,5.1626517310758855,1.7960412378801545
2.0408763685973073,4.3890970475133955,1.2945756580854264,5.1626517310758855,1.8441808554446486
2.0408763685973073,4.3890970475133955,1.3890718905543016,5.1626517310758855,1.8441808554446486
2.050643413237807,4.3890970475133955,1.5351871955191236,5.1626517310758855,1.7602757889122336
2.050643413237807,4.3890970475133955,1.5351871955191236,5.1626517310758855,1.7602757889122336
2.164147309394997,4.3890970475133955,1.4924889786040756,5.1626517310758855,1.7602757889122336
2.164147309394997,4.3890970475133955,1.3120130545959905,5.1626517310758855,1.7602757889122336
2.164147309394997,4.3890970475133955,1.2985090722872101,5.1626517310758855,1.8318054508181258
2.004057132842818,4.3890970475133955,1.2599653389590024,5.1626517310758855,1.8318054508181258
1.5301402547669578,4.533446178262261,1.2599653389590024,5.18870376457805,1.8318054508181258
1.5301402547669578,4.645509206230031,1.2599653389590024,5.25725250772592,1.8318054508181258
1.5301402547669578,4.671207379920444,1.2599653389590024,5.594527260715178,1.8318054508181258
1.5301402547669578,4.773042621513464,1.2599653389590024,5.580484447513654,1.8318054508181258
1.5301402547669578,4.704858683601109,1.2599653389590024,5.580484447513654,1.8318054508181258
1.5301402547669578,4.704858683601109,1.2599653389590024,5.580484447513654,1.8318054508181258
1.5301402547669578,4.703687914198234,1.2599653389590024,5.580484447513654,1.8058095809538768
1.5301402547669578,4.426811797871538,1.2599653389590024,5.171188640871318,1.8058095809538768
1.8834029690200342,4.302278289811008,1.3255516915797407,5.171188640871318,1.8058095809538768
1.8834029690200342,4.302278289811008,1.3816086089560335,5.171188640871318,1.8058095809538768
2.0712531838950947,4.302278289811008,1.5778189708167174,5.171188640871318,1.7018494411125606
2.062270921120082,4.302278289811008,1.5763443700093467,5.171188640871318,1.6456430102359219
2.0724393270238766,4.302278289811008,1.3753800959575706,5.171188640871318,1.6456430102359219
1.9798318241116548,4.426811797871538,1.223005274243608,5.171188640871318,1.6456430102359219
1.9780195547491568,4.426811797871538,1.1880396028649127,5.171188640871318,1.6456430102359219
1.8171126546898646,4.426811797871538,1.1157948530724833,5.171188640871318,1.7018494411125606
1.781808038901333,4.426811797871538,0.9516403013652807,5.171188640871318,1.8277866572587385
1.305377083436897,4.426811797871538,0.8862702038900503,5.171188640871318,1.837903282808265
0.8873657249932757,4.893493705331231,0.8862702038900503,5.477817579174431,2.0695859563336905
0.8873657249932757,5.147622102432542,0.8862702038900503,5.881442402474877,2.0695859563336905
0.8873657249932757,5.185908443271673,0.8862702038900503,5.939260838544952,2.0695859563336905
0.8873657249932757,5.23596678464858,0.8862702038900503,5.9503235695886945,2.30053241383672
0.8873657249932757,5.378885402218869,0.8862702038900503,5.969967024831497,2.30053241383672
0.8873657249932757,5.378885402218869,0.8840810268836237,6.068357061804755,2.3066534633656026
0.8873657249932757,5.411899717905363,0.8840810268836237,6.109614224504005,2.3066534633656026
0.8873657249932757,5.411899717905363,0.8840810268836237,6.119029501280347,2.3066534633656026
1.0023966293210562,5.3816459132250865,0.8840810268836237,6.085228954066543,2.3066534633656026
1.0480467368227935,5.3816459132250865,0.8745022356718314,6.085228954066543,2.3572047939527465
1.0480467368227935,5.3816459132250865,0.8703972044863079,6.085228954066543,2.3066534633656026
1.0510195131193953,5.3816459132250865,0.8537387800308733,6.085228954066543,2.259354575338113
1.0480467368227935,5.378885402218869,0.6686959763163307,6.096669655692485,2.259354575338113
1.0480467368227935,5.259209946509067,0.6686959763163307,5.9155587524020765,2.259354575338113
1.0480467368227935,5.1797579029119865,0.6686959763163307,5.734901179040301,2.15274589165622
1.0480467368227935,4.957343308515541,0.6686959763163307,5.212572490053556,2.2034228971688696
1.0480467368227935,4.271234767880037,0.6686959763163307,4.1844276593602725,2.2034228971688696
1.0480467368227935,3.3877944560280766,0.6686959763163307,2.7189578219624,2.2034228971688696
1.0480467368227935,2.482016645588929,0.6686959763163307,1.601858508260325,2.2034228971688696
1.0480467368227935,2.108687957889724,0.6686959763163307,0.9817123367293981,2.2034228971688696
1.0698597374791294,2.0534869126560573,0.8537387800308733,0.6207827862069937,2.2034228971688696
1.0698597374791294,1.6363454164028395,1.0191176648867482,0.5281834600327721,2.3304692502396485
1.0137600138655318,1.3373588322858279,1.4451500229198087,0.5281834600327721,2.4584678033209144
1.0698597374791294,1.3235535384637793,2.005906221133159,0.4992977556592125,2.6696668664223133
0.9973889437552345,1.2134862277971465,2.904994155601023,0.4992977556592125,3.263418854217484
0.9821747445425685,1.166907312525992,3.922275081204829,0.4992977556592125,3.7798986001483974
0.9821747445425685,1.0911171563489654,5.005174459080248,0.4992977556592125,3.9539832809313142
0.9821747445425685,1.0911171563489654,5.760180086527702,0.4992977556592125,4.159137955516287
0.9821747445425685,1.0245316510348366,5.958413175738123,0.4992977556592125,4.159137955516287
0.9821747445425685,0.9467788537643785,5.930480166950869,0.4992977556592125,4.159137955516287
0.9821747445425685,0.9165737787310404,5.898464300691057,0.503542698594711,4.159137955516287
0.9821747445425685,0.8951695700161971,5.780420687469346,0.544170001795518,4.004855772775551
0.9973889437552345,0.874923990916742,5.780420687469346,0.5595176857967262,3.8440305128150922
1.1576735662451663,0.8471263868353377,5.7763441527378,0.5739936783783325,3.7798986001483974
1.1558946088957152,0.8063804655684218,5.754945630788242,0.6151214307066123,3.7798986001483974
1.1558946088957152,0.8063804655684218,5.754945630788242,0.7305333594264173,3.7798986001483974
1.141584254528814,0.8024536287495649,5.754945630788242,0.7305333594264173,3.8440305128150922
1.141584254528814,0.7681541350906845,5.754945630788242,0.9658017136589819,3.7737899196469753
1.1389241654213642,0.7681541350906845,5.754945630788242,1.0769741395787866,3.7737899196469753
1.1389241654213642,0.7681541350906845,5.754945630788242,1.0769741395787866,3.7737899196469753
1.1389241654213642,0.7681541350906845,5.754945630788242,1.0769741395787866,3.7737899196469753
1.1389241654213642,0.7439597428711192,5.7763441527378,1.0769741395787866,3.7737899196469753
1.1389241654213642,0.7439597428711192,5.7763441527378,1.0769741395787866,3.8440305128150922
1.1389241654213642,0.6608631699007469,5.7763441527378,1.0769741395787866,3.831351228890009
1.1389241654213642,0.6528983825490591,5.777149413590369,1.0769741395787866,3.6221165099326
1.1389241654213642,0.6528983825490591,5.697486169550909,1.0769741395787866,3.4949979339600326
1.4058249975649453,0.6528983825490591,5.587057703926228,1.0769741395787866,3.4949979339600326
1.4100295875276272,0.6528983825490591,5.488817043170915,1.1516738972388554,3.4949979339600326
1.6276878030494453,0.6608631699007469,5.488817043170915,1.1757448409305735,3.425211308255241
1.6315194838822402,0.6608631699007469,5.488817043170915,1.276776403732919,3.4093721054596196
1.640930998002189,0.6608631699007469,5.488817043170915,1.4444955177651224,3.4093721054596196
1.8089436910985517,0.6608631699007469,5.262034759634831,1.4777763089780842,3.4093721054596196
2.0269614769143183,0.8881259990187368,5.170354964973207,1.4777763089780842,3.4093721054596196
2.0967866572124123,1.065115053496151,5.036830705131817,1.5934070832963874,3.4093721054596196
2.208317138029466,1.138764719398086,4.912475222024962,1.6961604069520555,3.4093721054596196
2.2894758274028058,1.2711775976178308,4.912475222024962,2.0908662504316147,3.4093721054596196
2.2611654087699713,1.3088938961809196,4.893115593845042,2.1363241668562587,3.182657126487338
2.0269614769143183,1.3441882832920193,4.893115593845042,2.1363241668562587,3.0762450614859804
2.0269614769143183,1.368869390127312,4.893115593845042,2.1363241668562587,3.0762450614859804
2.2894758274028058,1.594738921393822,4.858056505690064,2.252597129962515,3.0762450614859804
2.3765091010581796,1.8092327057673006,4.858056505690064,2.4455501089689626,3.0762450614859804
2.3765091010581796,1.8092327057673006,4.858056505690064,2.591266858077275,2.9815316444739475
2.4323532640176895,1.7295118679957293,4.858056505690064,2.591266858077275,2.9815316444739475
2.474704387879312,1.7295118679957293,4.858056505690064,2.591266858077275,2.9815316444739475
2.474704387879312,1.7295118679957293,4.762751156364689,2.591266858077275,2.9815316444739475
2.465961880878535,1.7295118679957293,4.858056505690064,2.591266858077275,2.9815316444739475
2.2611654087699713,1.7295118679957293,4.858056505690064,2.4275025514623367,3.0860815732968763
2.0880096022210917,1.6391049644026516,4.942851268293413,1.7496005868250961,3.1810793277280753
2.4323532640176895,1.6123675327903197,4.942851268293413,1.7496005868250961,3.1810793277280753
2.4323532640176895,1.6123675327903197,4.942851268293413,1.7496005868250961,3.267379022445325
2.4323532640176895,1.6123675327903197,4.2362264519153126,1.7496005868250961,3.0860815732968763
2.4323532640176895,1.6123675327903197,3.786356590988236,1.7496005868250961,2.9815316444739475
2.465961880878535,1.6391049644026516,3.283337604428259,1.7496005868250961,2.782784108518972
2.465961880878535,1.6391049644026516,3.1016695378768158,1.7496005868250961,2.553560122893075
2.3779240280543172,1.6391049644026516,3.097809458587619,1.7496005868250961,2.046609806279858
2.376395548852266,1.6391049644026516,3.097809458587619,1.7496005868250961,2.046609806279858
2.376395548852266,1.6391049644026516,3.097809458587619,1.7496005868250961,2.046609806279858
2.3779240280543172,1.6391049644026516,3.097809458587619,1.7496005868250961,2.046609806279858
2.461422967140416,2.161835867271638,3.097809458587619,2.5365139227079045,2.046609806279858
2.3779240280543172,1.8226913018947604,3.097809458587619,1.936416340234532,2.046609806279858
2.3779240280543172,1.8226913018947604,3.097809458587619,1.936416340234532,2.046609806279858
2.3779240280543172,1.8226913018947604,3.097809458587619,1.936416340234532,2.046609806279858
2.376395548852266,1.8226913018947604,3.097809458587619,1.936416340234532,2.046609806279858
2.3377759606623223,1.7566692082555355,3.14904754145792,1.936416340234532,2.2121732884445735
2.3377759606623223,1.7566692082555355,3.387524070516251,1.936416340234532,2.6402400144702707
2.3377759606623223,1.7566692082555355,3.645260627218182,1.936416340234532,2.7836496498895147
2.311090655316505,1.7566692082555355,4.156473375532379,1.936416340234532,2.876098033805521
2.311090655316505,1.7566692082555355,5.2179822438579,1.936416340234532,3.3584322926674064
2.311090655316505,1.7566692082555355,5.238970673041892,1.936416340234532,3.203536558737939
2.311090655316505,1.7566692082555355,4.954249924269974,1.936416340234532,3.183764961838232
2.3377759606623223,1.8380594276806341,4.9134855365772045,2.129254137719141,3.029433225615304
2.405268213953073,1.8637492107595022,4.9134855365772045,2.3337353963788474,2.984957365838634
2.405268213953073,1.8637492107595022,4.9134855365772045,2.415796790621765,2.7836496498895147
2.405268213953073,1.8637492107595022,4.9134855365772045,2.415796790621765,2.7836496498895147
2.552192735894881,1.9005469752748818,4.6976407026046285,2.4324440727381207,2.7836496498895147
2.5651889210938257,1.8637492107595022,4.6976407026046285,2.4324440727381207,2.7836496498895147
2.5651889210938257,1.7703585889421982,4.6976407026046285,2.5673001369354083,2.876098033805521
2.5672465897785255,1.6239653359101953,4.6976407026046285,2.715244861105004,2.635648918856147
2.5672465897785255,1.4509348648051068,4.6976407026046285,2.715244861105004,2.635648918856147
2.5651889210938257,1.4509348648051068,4.6976407026046285,2.715244861105004,2.635648918856147
2.4709296692898333,1.4509348648051068,4.71846335442306,2.715244861105004,2.635648918856147
2.4709296692898333,1.4509348648051068,4.71846335442306,2.715244861105004,2.635648918856147
2.366515606324773,1.4509348648051068,4.71846335442306,2.5673001369354083,2.832175250674665
2.2299410791226313,1.3120293200738007,4.71846335442306,1.9758211687431682,2.9895462805435336
2.2299410791226313,1.12323294044363,4.71846335442306,1.9165046547092996,2.9895462805435336
2.2299410791226313,1.12323294044363,4.781035865101518,1.9165046547092996,2.9895462805435336
2.2299410791226313,1.12323294044363,4.733076387447669,1.9165046547092996,2.9895462805435336
2.2299410791226313,1.1667289163319763,4.301602209627886,1.9165046547092996,2.809447817458236
2.2299410791226313,1.2710900099536397,4.118882721525529,1.9165046547092996,2.763703937779124
2.2299410791226313,1.2710900099536397,4.118882721525529,1.9165046547092996,2.4210242498744368
2.366515606324773,1.2710900099536397,4.118882721525529,1.9165046547092996,2.276852224071163
2.397897954817844,1.2710900099536397,3.850347364222447,1.9165046547092996,2.2742054031283145
2.397897954817844,1.2710900099536397,3.7183850636077116,1.9165046547092996,2.1541700529478534
2.470779628363796,1.2710900099536397,3.7183850636077116,1.9165046547092996,2.1541700529478534
2.6401150115858276,1.9905403093217349,3.7183850636077116,2.060317991682949,2.1541700529478534
2.6401150115858276,1.6762043102670117,3.7183850636077116,2.304074388353213,2.1541700529478534
2.6401150115858276,1.7164417457812,3.7183850636077116,2.304074388353213,2.1541700529478534
2.48320455143927,1.6570685764417812,3.7183850636077116,2.304074388353213,2.1541700529478534
2.48320455143927,1.6570685764417812,3.850347364222447,2.304074388353213,2.1541700529478534
2.48320455143927,1.6570685764417812,3.850347364222447,2.304074388353213,2.1541700529478534
2.48320455143927,1.6570685764417812,3.850347364222447,2.304074388353213,2.299394597208029
2.48320455143927,1.6570685764417812,3.850347364222447,2.304074388353213,2.299394597208029
2.48320455143927,1.6570685764417812,4.178999344953495,2.304074388353213,2.2770445441498492
2.48320455143927,1.6570685764417812,4.50675967030128,2.304074388353213,2.3806310990173096
2.48320455143927,1.6570685764417812,4.50675967030128,2.304074388353213,2.3806310990173096
2.48320455143927,1.6570685764417812,4.50675967030128,2.304074388353213,2.3806310990173096
2.5220440412419705,1.7770566782466581,4.50675967030128,2.3818556481020075,2.3806310990173096
2.6555512760701125,1.9790641717939506,4.50675967030128,2.8658826411227887,2.3806310990173096
2.802526791136368,2.097256680904518,4.50675967030128,3.116043665975968,2.3806310990173096
2.9385486195900516,2.1009451179299865,4.192890090506067,3.116043665975968,2.2990418448027516
2.894798593024358,2.190519730370674,3.230639660705897,3.116043665975968,2.2770445441498492
2.894798593024358,2.2527230687020925,3.217170499899058,3.116043665975968,2.1993521523237645
2.894798593024358,2.2628400251956844,3.217170499899058,3.2298120085196844,2.2770445441498492
2.8426587317022936,2.304292854950051,3.217170499899058,3.2743111522585386,2.2990418448027516
2.894798593024358,2.304292854950051,3.217170499899058,3.2743111522585386,2.1158109321042367
2.894798593024358,2.304292854950051,3.217170499899058,3.2743111522585386,2.1158109321042367
2.894798593024358,2.337635454219138,3.217170499899058,3.2743111522585386,2.1158109321042367
2.894798593024358,2.5695033121269737,3.217170499899058,3.28177023039462,2.1158109321042367
2.894798593024358,2.7152305096211324,3.217170499899058,3.435156568267264,2.1158109321042367
2.894798593024358,2.4861130339332322,3.217170499899058,3.5256561027206113,2.1158109321042367
2.894798593024358,2.337635454219138,3.217170499899058,3.4725320464916267,2.1158109321042367
2.90747085170843,2.337635454219138,3.5259172472428,3.4725320464916267,2.1621238254229227
2.90747085170843,2.337635454219138,3.671159258095065,3.4725320464916267,2.1158109321042367
2.90747085170843,2.337635454219138,3.2160220070335166,3.4725320464916267,2.0435893524714084
3.0634771776289815,2.337635454219138,2.8560722262297618,3.4725320464916267,1.7322845496526107
3.105912110167768,2.4861130339332322,2.68202661541241,3.4725320464916267,1.7322845496526107
3.105912110167768,2.4861130339332322,2.5469257405955665,3.4725320464916267,1.7322845496526107
2.610866385978602,2.4861130339332322,2.1465914488427975,3.4725320464916267,1.7322845496526107
2.4416714557166403,2.4861130339332322,1.708702312904109,3.4725320464916267,1.7322845496526107
2.4416714557166403,2.993679854247493,1.2156980193843274,3.4725320464916267,1.7322845496526107
1.9085442973297098,3.0485421906301267,1.0433759294228606,3.5572232717712047,1.7322845496526107
1.66382652920906,3.7223450028473066,1.0433759294228606,4.242380534074434,1.7322845496526107
1.66382652920906,3.851424438053702,1.0433759294228606,4.928007864605746,1.7322845496526107
1.66382652920906,4.267122857708491,1.0433759294228606,5.189633217147869,1.7405485836803132
1.6202576311361023,4.3526606019087,0.9882567421578855,5.265992893155481,2.0400155886402254
1.4126700137793753,4.593222342353905,0.8875522572278917,5.31465933175554,2.239242503066892
1.3630747609834388,4.973624897385213,0.8875522572278917,5.645179433520757,2.28165749153752
1.2889412922716723,4.973624897385213,0.8875522572278917,5.455953909692785,2.1011787108328552
1.2889412922716723,4.72130493048274,0.8875522572278917,4.858907690632243,2.1011787108328552
1.3630747609834388,4.285945777254025,0.8875522572278917,4.073167435305334,2.1953599686298744
1.3630747609834388,3.3996267577246386,0.9472967173330241,3.2250554283139667,2.363423869649924
1.3630747609834388,2.1371059562913244,0.9472967173330241,2.2817522834917905,2.363423869649924
1.2948675924856565,1.6879515750834597,0.9472967173330241,1.9758652923961708,2.363423869649924
1.2948675924856565,1.6443456682037663,0.9472967173330241,1.9078186765422782,2.363423869649924
1.2948675924856565,1.6443456682037663,1.2307310699456815,1.9078186765422782,2.363423869649924
1.2948675924856565,1.5387658950656995,1.6373618451947627,1.9078186765422782,2.5529430504723822
1.4488827411945597,1.4620704649229883,2.480864691194727,1.9078186765422782,2.7541263494498422
1.4488827411945597,1.3812094847343375,3.3270879894914485,1.5798380062766337,3.050940401278509
1.4488827411945597,1.1638334847236815,4.187255194066727,1.4935924823797224,3.5660807932930285
1.4488827411945597,0.9858215734368906,4.853058207768238,1.3777195810508112,3.683855667816503
1.4488827411945597,0.7479398253419437,5.348003312009824,1.2924702396784216,3.7477571256045747
1.3236996935179186,0.7479398253419437,5.48392296357101,1.1993164243651828,3.7477571256045747
1.1937479967080673,0.7479398253419437,5.48392296357101,1.027897988362934,3.7477571256045747
1.159697872348767,0.7479398253419437,5.48392296357101,0.7720370678525872,3.7477571256045747
1.159697872348767,0.7479398253419437,5.48392296357101,0.7173047646910482,3.7998779917744576
1.159697872348767,0.7479398253419437,5.6850684764449975,0.6326535399213408,3.8601351133059523
1.159697872348767,0.7479398253419437,5.6850684764449975,0.6118092977204165,3.8601351133059523
1.159697872348767,0.7479398253419437,5.8147793585489245,0.48952295133075224,3.8601351133059523
1.0341071400013206,0.9858215734368906,5.893406604593865,0.40513907903434865,3.8601351133059523
1.022257417573166,1.1479803379346363,5.910122382763966,0.379510442123325,3.9325967167729927
0.9674197055742586,1.2615523289020543,5.9772396180827085,0.36969214826660296,3.9721883811405725
0.9267870987819149,1.355960195988392,6.040953489207159,0.3088055732678683,4.1173770265920435
0.9267870987819149,1.355960195988392,6.047270214457411,0.2776387702958808,4.135395881624868
0.9267870987819149,1.3851765625105827,6.092670169469019,0.27467698492460974,4.135395881624868
0.9109630351922254,1.3851765625105827,6.092670169469019,0.26198530949259885,4.135395881624868
0.8428662253698109,1.3851765625105827,6.092670169469019,0.2152781411635284,4.171975668363698
0.8337308374081869,1.3851765625105827,6.099440940992944,0.16345020295556675,4.234283632699609
0.8223573486792828,1.3155528275823904,6.1064657499786374,0.14120428570719948,4.263143115560691
0.6239132264705355,1.3155528275823904,6.1112661298670234,0.14120428570719948,4.29621270315666
0.46166180808682794,1.3155528275823904,6.1064657499786374,0.14120428570719948,4.29621270315666
0.46166180808682794,1.3155528275823904,6.099440940992944,0.14120428570719948,4.29621270315666
0.46166180808682794,1.3155528275823904,6.0345208448317145,0.14120428570719948,4.366631214272538
0.46166180808682794,1.3155528275823904,5.924873900706603,0.14120428570719948,4.366631214272538
0.46166180808682794,1.405991773518116,5.834572503786798,0.14120428570719948,4.366631214272538
0.46166180808682794,1.405991773518116,5.760156833380174,0.14120428570719948,4.29621270315666
0.46166180808682794,1.405991773518116,5.691654605525346,0.1593978794903795,4.29621270315666
0.49735062229866506,1.405991773518116,4.427280680719468,0.1760241410438664,3.9740943560746764
0.6357349633443414,1.4383505953401179,2.9436761094890054,0.1760241410438664,3.3243658128124896
0.8870040383420504,1.4383505953401179,1.95771177926321,0.34113102263321865,2.872811152808403
1.168382977663036,1.4383505953401179,1.5915014409913106,0.5631661585398122,2.814796750061693
1.18178760925475,1.4383505953401179,1.2207181779816527,0.7594713099405833,2.814796750061693
1.0314238610605149,1.5421608492817926,1.0416023852780363,1.0679271937180832,2.814796750061693
1.168382977663036,1.7366938564926904,0.8930428308676801,1.4346949425382172,2.814796750061693
1.168382977663036,2.0517966238270917,0.800818085616709,1.7104490469199625,2.814796750061693
0.9707648634977111,2.3394152589316857,0.791714503654653,1.9642495723709505,2.814796750061693
0.9004589205936263,2.768783035678222,0.7827591670742664,2.5419472169591324,2.814796750061693
0.7395725891359755,4.407815889657122,0.760488213817579,4.515728942772827,2.814796750061693
0.7342239583610419,5.130941830919146,0.760488213817579,5.572292964870325,2.7582941148040256
0.7342239583610419,5.499497466558775,0.760488213817579,5.909239074211794,2.710695324327466
0.7342239583610419,5.615945487230342,0.760488213817579,6.033831849894919,2.8339723986061287
0.7342239583610419,5.732167083232662,0.760488213817579,6.153954253316154,2.842377632153305
0.7342239583610419,5.797582290657255,0.760488213817579,6.160356856505771,2.842377632153305
0.7342239583610419,5.789528507550242,0.760488213817579,6.178548384805121,2.85316604591835
0.7342239583610419,5.785108157562527,0.7229740184181266,6.145739245856589,2.903359570906068
0.7852669631937441,5.7746338343350825,0.7130344001696968,6.107793141918208,2.7582941148040256
0.8101880790966501,5.748873232591545,0.7130344001696968,6.107793141918208,2.696042900513827
0.8101880790966501,5.718694583411557,0.7130344001696968,6.107793141918208,2.5865903190782356
0.8185348311848568,5.606984725974242,0.5254888280340033,6.107793141918208,2.5865903190782356
0.9148937248148237,5.544643103966674,0.5254888280340033,6.107793141918208,2.5865903190782356
1.0062965172321356,5.531374590504193,0.5254888280340033,6.099786217093785,2.5865903190782356
1.0104092948548113,5.531374590504193,0.5254888280340033,6.073388060340263,2.4890319040447992
1.1768497176767925,5.4742560762787535,0.5254888280340033,6.049371024133132,2.4060696605046292
1.2321927040666059,5.457459031070908,0.5254888280340033,6.044752008544037,2.3715789976323385
1.2321927040666059,5.438511658653228,0.5254888280340033,6.041477059207961,2.3715789976323385
1.2321927040666059,5.370212858370007,0.5254888280340033,6.0329350442261385,2.3715789976323385
1.2007151187100533,5.370212858370007,0.6009752614326251,6.02441993126518,2.4060696605046292
1.2007151187100533,5.290175964875734,0.6369915809392215,6.02121385043724,2.3715789976323385
1.2007151187100533,5.289787193585979,0.6369915809392215,6.02121385043724,2.126596549537586
1.2257687877238312,5.289787193585979,0.6369915809392215,6.02121385043724,2.126596549537586
1.2257687877238312,5.286413382321241,0.6393066566545057,6.02121385043724,2.126596549537586
1.2257687877238312,5.286413382321241,0.6393066566545057,6.013410120837611,2.126596549537586
1.2257687877238312,5.286413382321241,0.6372573377694454,6.013410120837611,2.126596549537586
1.2257687877238312,5.286413382321241,0.548574917667705,6.013410120837611,2.126596549537586
1.2257687877238312,5.286413382321241,0.548574917667705,6.02121385043724,2.126596549537586
1.2257687877238312,5.272248404065671,0.548574917667705,6.02441993126518,2.126596549537586
1.2257687877238312,5.241845653317126,0.548574917667705,6.02441993126518,2.126596549537586
1.2517061992586618,5.1931382705674825,0.548574917667705,6.038814799289641,2.126596549537586
1.2517061992586618,5.1931382705674825,0.548574917667705,6.038814799289641,2.1737189647980286
1.3302485868523186,5.241845653317126,0.568883600468608,6.013410120837611,2.2330451512161047
1.3342595779670239,5.241845653317126,0.6372573377694454,5.9979855366489145,2.2330451512161047
1.3342595779670239,5.241845653317126,0.6372573377694454,5.852563612269619,2.2330451512161047
1.3342595779670239,5.178043871929209,0.7994989982416909,5.641950797351841,2.2330451512161047
1.4355784222401127,5.122546376862382,0.8984463431066528,5.625572754016294,2.2330451512161047
1.6202234896389547,5.0587820309695255,0.902819731861681,5.625572754016294,2.2330451512161047
1.6679279509475642,5.018594620527259,0.9367482648778986,5.625572754016294,2.140279284057644
1.681874818350137,4.980781390453683,0.9495691267209767,5.625572754016294,2.140279284057644
1.681874818350137,4.980781390453683,0.9637165607062138,5.625572754016294,2.140279284057644
1.7073382585249912,4.980781390453683,1.1542367781075153,5.625572754016294,2.140279284057644
1.7073382585249912,4.980781390453683,1.1587908443584423,5.625572754016294,2.140279284057644
1.7073382585249912,4.980781390453683,1.1542367781075153,5.625572754016294,2.1448777297559483
1.681874818350137,4.980781390453683,1.1542367781075153,5.625572754016294,2.140279284057644
1.6200000985194736,4.980781390453683,1.0292475427710082,5.625572754016294,2.092244574855728
1.6200000985194736,5.018594620527259,1.0292475427710082,5.692052052099586,2.092244574855728
1.6200000985194736,5.030650944395044,1.0292475427710082,5.867114876364598,2.092244574855728
1.6200000985194736,5.030650944395044,1.0292475427710082,5.809109496173487,2.1311143022866625
