,cpu,voltage,label
0,-0.15,0.2,0
1,-0.15,0.2,0
2,-0.15,0.2,0
3,-0.15,0.2,0
4,-0.15,0.2,0
5,-0.15,0.2,0
6,-0.15,0.2,0
7,-0.15,0.2,0
8,-0.145,0.2,0
9,-0.135,0.215,0
10,-0.11,0.235,0
11,-0.08,0.24,0
12,-0.04,0.24,0
13,0.0,0.245,0
14,0.125,0.265,0
15,0.485,0.335,0
16,0.925,0.46,0
17,0.985,0.775,0
18,0.625,1.03,0
19,0.25,0.935,0
20,0.095,0.665,0
21,0.1,0.485,0
22,0.12,0.445,0
23,0.11,0.425,0
24,0.08,0.395,0
25,0.05,0.355,0
26,0.04,0.335,0
27,0.035,0.33,0
28,0.045,0.335,0
29,0.06,0.3,0
30,0.06,0.305,0
31,0.045,0.26,0
32,0.015,0.235,0
33,0.01,0.21,0
34,0.0,0.195,0
35,0.0,0.165,0
36,-0.02,0.165,1
37,-0.035,0.135,0
38,-0.065,0.115,0
39,-0.075,0.11,0
40,-0.11,0.11,0
41,-0.145,0.105,0
42,-0.18,0.085,0
43,-0.225,0.065,0
44,-0.27,0.035,0
45,-0.31,0.04,0
46,-0.38,0.03,0
47,-0.455,0.02,0
48,-0.51,-0.005,0
49,-0.565,-0.02,0
50,-0.62,-0.04,0
51,-0.665,-0.03,0
52,-0.705,-0.035,0
53,-0.75,-0.045,0
54,-0.79,-0.07,0
55,-0.83,-0.105,0
56,-0.86,-0.15,0
57,-0.88,-0.18,0
58,-0.885,-0.22,0
59,-0.9,-0.255,0
60,-0.9,-0.3,0
61,-0.895,-0.33,0
62,-0.885,-0.345,0
63,-0.87,-0.37,0
64,-0.855,-0.385,0
65,-0.845,-0.405,0
66,-0.825,-0.435,0
67,-0.82,-0.475,0
68,-0.8,-0.48,0
69,-0.77,-0.5,0
70,-0.72,-0.51,0
71,-0.655,-0.535,0
72,-0.61,-0.565,0
73,-0.58,-0.58,1
74,-0.55,-0.565,0
75,-0.49,-0.53,0
76,-0.445,-0.485,0
77,-0.38,-0.445,0
78,-0.345,-0.4,0
79,-0.31,-0.36,0
80,-0.3,-0.305,0
81,-0.27,-0.245,0
82,-0.235,-0.18,0
83,-0.225,-0.125,0
84,-0.215,-0.085,0
85,-0.22,-0.055,0
86,-0.225,-0.015,0
87,-0.22,0.02,0
88,-0.21,0.055,0
89,-0.2,0.085,0
90,-0.18,0.095,0
91,-0.19,0.095,0
92,-0.205,0.095,0
93,-0.205,0.11,0
94,-0.21,0.145,0
95,-0.205,0.155,0
96,-0.2,0.175,0
97,-0.2,0.185,0
98,-0.19,0.215,0
99,-0.175,0.245,0
100,-0.165,0.275,0
101,-0.13,0.295,0
102,-0.145,0.31,0
103,-0.125,0.315,0
104,-0.13,0.32,0
105,-0.115,0.335,0
106,-0.095,0.35,0
107,-0.085,0.345,0
108,-0.08,0.34,0
109,-0.08,0.335,0
110,-0.085,0.33,0
111,-0.075,0.345,0
112,-0.065,0.365,0
113,-0.05,0.36,0
114,-0.045,0.365,0
115,-0.05,0.35,0
116,-0.05,0.35,0
117,-0.045,0.36,0
118,-0.035,0.37,0
119,-0.015,0.385,0
120,-0.02,0.38,0
121,-0.035,0.375,0
122,-0.025,0.365,0
123,-0.03,0.37,0
124,-0.01,0.39,0
125,-0.01,0.39,0
126,0.005,0.395,0
127,-0.005,0.395,0
128,-0.005,0.385,0
129,-0.005,0.4,0
130,0.01,0.415,0
131,0.02,0.415,0
132,0.025,0.42,0
133,0.02,0.41,0
134,0.015,0.41,0
135,0.02,0.43,0
136,0.035,0.435,0
137,0.05,0.44,0
138,0.04,0.44,0
139,0.045,0.44,0
140,0.04,0.43,0
141,0.035,0.445,0
142,0.055,0.465,0
143,0.065,0.47,0
144,0.06,0.465,0
145,0.055,0.465,0
146,0.055,0.465,0
147,0.065,0.47,0
148,0.08,0.49,0
149,0.07,0.495,0
150,0.09,0.5,0
151,0.08,0.485,0
152,0.07,0.49,0
153,0.075,0.505,0
154,0.085,0.52,0
155,0.1,0.52,0
156,0.095,0.52,0
157,0.09,0.52,0
158,0.08,0.515,0
159,0.08,0.53,0
160,0.095,0.535,0
161,0.095,0.55,0
162,0.09,0.545,0
163,0.09,0.535,0
164,0.09,0.535,0
165,0.09,0.54,0
166,0.075,0.545,0
167,0.085,0.56,0
168,0.105,0.535,0
169,0.08,0.54,0
170,0.065,0.52,0
171,0.065,0.525,0
172,0.07,0.525,0
173,0.075,0.535,0
174,0.065,0.52,0
175,0.055,0.51,0
176,0.035,0.5,0
177,0.035,0.505,0
178,0.035,0.515,0
179,0.035,0.495,0
180,0.025,0.485,0
181,0.01,0.465,0
182,0.0,0.455,0
183,-0.02,0.465,0
184,-0.01,0.465,0
185,-0.015,0.47,0
186,-0.02,0.45,0
187,-0.05,0.44,0
188,-0.06,0.43,0
189,-0.06,0.425,0
190,-0.065,0.425,0
191,-0.065,0.42,0
192,-0.08,0.4,0
193,-0.095,0.38,0
194,-0.1,0.37,0
195,-0.095,0.375,0
196,-0.1,0.38,0
197,-0.09,0.375,0
198,-0.1,0.365,0
199,-0.11,0.345,0
200,-0.135,0.34,0
201,-0.135,0.33,0
202,-0.125,0.335,0
203,-0.12,0.33,0
204,-0.115,0.33,0
205,-0.135,0.31,0
206,-0.15,0.3,0
207,-0.145,0.295,0
208,-0.145,0.3,0
209,-0.135,0.305,0
210,-0.135,0.295,0
211,-0.145,0.29,0
212,-0.155,0.28,0
213,-0.15,0.285,0
214,-0.14,0.295,0
215,-0.14,0.29,0
216,-0.145,0.28,0
217,-0.15,0.28,0
218,-0.15,0.27,0
219,-0.17,0.29,0
220,-0.155,0.275,0
221,-0.145,0.285,0
222,-0.135,0.265,0
223,-0.15,0.275,0
224,-0.16,0.265,0
225,-0.155,0.275,0
226,-0.16,0.29,0
227,-0.135,0.275,0
228,-0.145,0.265,0
229,-0.15,0.26,0
230,-0.165,0.26,0
231,-0.155,0.26,0
232,-0.14,0.275,0
233,-0.135,0.27,0
234,-0.155,0.255,0
235,-0.15,0.26,0
236,-0.165,0.255,0
237,-0.165,0.25,0
238,-0.16,0.265,0
239,-0.15,0.27,0
240,-0.15,0.265,0
241,-0.15,0.245,0
242,-0.15,0.25,0
243,-0.175,0.255,0
244,-0.165,0.265,0
245,-0.155,0.265,0
246,-0.16,0.265,0
247,-0.17,0.265,0
248,-0.175,0.255,0
249,-0.185,0.255,0
250,-0.16,0.275,0
251,-0.16,0.265,0
252,-0.165,0.26,0
253,-0.18,0.25,0
254,-0.19,0.25,0
255,-0.195,0.255,0
256,-0.18,0.265,0
257,-0.18,0.26,0
258,-0.185,0.25,0
259,-0.195,0.245,0
260,-0.21,0.23,0
261,-0.205,0.245,0
262,-0.2,0.26,0
263,-0.2,0.245,0
264,-0.205,0.24,0
265,-0.22,0.225,0
266,-0.24,0.23,0
267,-0.23,0.235,0
268,-0.22,0.24,0
269,-0.215,0.24,0
270,-0.225,0.24,0
271,-0.225,0.23,0
272,-0.245,0.22,0
273,-0.235,0.23,0
274,-0.23,0.23,0
275,-0.215,0.225,0
276,-0.215,0.235,0
277,-0.235,0.205,0
278,-0.245,0.21,0
279,-0.235,0.22,0
280,-0.23,0.225,0
281,-0.225,0.225,0
282,-0.235,0.23,0
283,-0.25,0.21,0
284,-0.26,0.205,0
285,-0.25,0.215,0
286,-0.245,0.215,0
287,-0.23,0.235,0
288,-0.245,0.21,0
289,-0.25,0.205,0
290,-0.25,0.195,0
291,-0.255,0.215,0
292,-0.25,0.22,0
293,-0.245,0.22,0
294,-0.26,0.2,0
295,-0.25,0.2,0
296,-0.28,0.205,0
297,-0.26,0.21,0
298,-0.255,0.215,0
299,-0.255,0.22,0
300,-0.255,0.22,0
301,-0.25,0.215,0
302,-0.27,0.195,0
303,-0.26,0.215,0
304,-0.255,0.225,0
305,-0.24,0.225,0
306,-0.235,0.22,0
307,-0.23,0.215,0
308,-0.21,0.215,0
309,-0.205,0.23,0
310,-0.135,0.245,0
311,-0.04,0.275,0
312,0.205,0.315,0
313,0.63,0.415,0
314,0.845,0.695,0
315,0.63,1.0,0
316,0.26,0.98,1
317,0.06,0.71,0
318,0.045,0.495,0
319,0.05,0.42,0
320,0.03,0.415,0
321,0.005,0.41,0
322,-0.01,0.38,0
323,-0.04,0.37,0
324,-0.035,0.365,0
325,-0.04,0.34,0
326,-0.05,0.32,0
327,-0.045,0.32,0
328,-0.06,0.31,0
329,-0.055,0.28,0
330,-0.07,0.255,0
331,-0.09,0.21,0
332,-0.115,0.2,0
333,-0.12,0.185,0
334,-0.13,0.19,0
335,-0.135,0.16,0
336,-0.17,0.145,0
337,-0.22,0.12,0
338,-0.265,0.105,0
339,-0.3,0.09,0
340,-0.33,0.08,0
341,-0.35,0.045,0
342,-0.4,0.03,0
343,-0.465,0.0,0
344,-0.565,-0.015,0
345,-0.63,-0.025,0
346,-0.67,-0.045,0
347,-0.71,-0.04,0
348,-0.75,-0.055,0
349,-0.81,-0.085,0
350,-0.87,-0.11,0
351,-0.905,-0.13,0
352,-0.92,-0.15,0
353,-0.925,-0.195,0
354,-0.93,-0.26,0
355,-0.935,-0.295,0
356,-0.945,-0.335,0
357,-0.935,-0.34,0
358,-0.915,-0.355,0
359,-0.905,-0.395,0
360,-0.895,-0.44,0
361,-0.905,-0.47,0
362,-0.91,-0.51,0
363,-0.88,-0.525,0
364,-0.865,-0.545,0
365,-0.84,-0.58,0
366,-0.8,-0.625,0
367,-0.75,-0.65,0
368,-0.705,-0.67,0
369,-0.66,-0.635,0
370,-0.61,-0.6,0
371,-0.565,-0.57,0
372,-0.52,-0.535,0
373,-0.48,-0.505,0
374,-0.455,-0.445,0
375,-0.405,-0.38,0
376,-0.385,-0.33,0
377,-0.35,-0.27,0
378,-0.33,-0.225,0
379,-0.325,-0.18,0
380,-0.325,-0.15,0
381,-0.32,-0.1,0
382,-0.295,-0.065,0
383,-0.285,-0.04,0
384,-0.275,-0.005,0
385,-0.265,-0.01,0
386,-0.26,0.005,0
387,-0.255,0.03,0
388,-0.26,0.055,0
389,-0.27,0.08,0
390,-0.26,0.085,0
391,-0.265,0.09,0
392,-0.265,0.12,0
393,-0.265,0.145,0
394,-0.245,0.18,0
395,-0.23,0.21,0
396,-0.2,0.22,0
397,-0.2,0.23,0
398,-0.2,0.25,0
399,-0.185,0.28,0
400,-0.175,0.305,0
401,-0.155,0.305,0
402,-0.16,0.305,0
403,-0.145,0.315,0
404,-0.15,0.3,0
405,-0.145,0.31,0
406,-0.135,0.32,0
407,-0.13,0.325,0
408,-0.125,0.335,0
409,-0.125,0.325,0
410,-0.135,0.32,0
411,-0.125,0.325,0
412,-0.12,0.345,0
413,-0.105,0.345,0
414,-0.105,0.345,0
415,-0.11,0.335,0
416,-0.115,0.335,0
417,-0.11,0.355,0
418,-0.095,0.375,0
419,-0.09,0.37,0
420,-0.09,0.375,0
421,-0.09,0.365,0
422,-0.095,0.37,0
423,-0.1,0.37,0
424,-0.085,0.38,0
425,-0.065,0.39,0
426,-0.07,0.385,0
427,-0.095,0.38,0
428,-0.08,0.385,0
429,-0.085,0.395,0
430,-0.08,0.41,0
431,-0.06,0.405,0
432,-0.05,0.405,0
433,-0.07,0.4,0
434,-0.07,0.405,0
435,-0.07,0.42,0
436,-0.06,0.43,0
437,-0.045,0.44,0
438,-0.055,0.435,0
439,-0.055,0.435,0
440,-0.055,0.435,0
441,-0.05,0.46,0
442,-0.045,0.465,0
443,-0.025,0.47,0
444,-0.03,0.475,0
445,-0.03,0.465,0
446,-0.05,0.475,0
447,-0.04,0.485,0
448,-0.03,0.5,0
449,-0.005,0.505,0
450,0.0,0.505,0
451,-0.005,0.5,0
452,-0.02,0.5,0
453,-0.015,0.515,0
454,0.0,0.525,0
455,0.01,0.525,0
456,0.005,0.525,0
457,0.01,0.525,0
458,0.0,0.52,0
459,-0.005,0.535,0
460,0.015,0.54,0
461,0.015,0.55,0
462,0.015,0.545,0
463,0.005,0.54,0
464,0.0,0.535,0
465,-0.005,0.54,0
466,-0.005,0.54,0
467,0.005,0.54,0
468,0.0,0.53,0
469,-0.015,0.52,0
470,-0.03,0.51,0
471,-0.035,0.515,0
472,-0.035,0.52,0
473,-0.035,0.505,0
474,-0.04,0.5,0
475,-0.06,0.48,0
476,-0.08,0.47,0
477,-0.08,0.47,0
478,-0.08,0.47,0
479,-0.075,0.46,0
480,-0.09,0.455,0
481,-0.1,0.435,0
482,-0.12,0.425,0
483,-0.12,0.415,0
484,-0.115,0.415,0
485,-0.115,0.41,0
486,-0.125,0.39,0
487,-0.145,0.375,0
488,-0.16,0.355,0
489,-0.16,0.365,0
490,-0.15,0.37,0
491,-0.16,0.355,0
492,-0.155,0.355,0
493,-0.17,0.335,0
494,-0.175,0.315,0
495,-0.175,0.315,0
496,-0.18,0.335,0
497,-0.175,0.33,0
498,-0.175,0.315,0
499,-0.185,0.295,0
500,-0.2,0.29,0
501,-0.21,0.3,0
502,-0.19,0.305,0
503,-0.19,0.305,0
504,-0.19,0.295,0
505,-0.195,0.28,0
506,-0.215,0.26,0
507,-0.215,0.28,0
508,-0.2,0.275,0
509,-0.195,0.275,0
510,-0.205,0.28,0
511,-0.22,0.25,0
512,-0.235,0.24,0
513,-0.22,0.265,0
514,-0.215,0.27,0
515,-0.205,0.27,0
516,-0.21,0.25,0
517,-0.225,0.24,0
518,-0.235,0.225,0
519,-0.24,0.26,0
520,-0.23,0.26,0
521,-0.225,0.27,0
522,-0.23,0.26,0
523,-0.245,0.24,0
524,-0.235,0.24,0
525,-0.245,0.245,0
526,-0.235,0.245,0
527,-0.235,0.255,0
528,-0.23,0.25,0
529,-0.24,0.235,0
530,-0.26,0.24,0
531,-0.26,0.245,0
532,-0.26,0.25,0
533,-0.25,0.25,0
534,-0.265,0.255,0
535,-0.27,0.235,0
536,-0.28,0.24,0
537,-0.265,0.235,0
538,-0.26,0.25,0
539,-0.255,0.245,0
540,-0.265,0.24,0
541,-0.275,0.23,0
542,-0.285,0.22,0
543,-0.285,0.23,0
544,-0.275,0.24,0
545,-0.265,0.23,0
546,-0.27,0.23,0
547,-0.275,0.23,0
548,-0.29,0.21,0
549,-0.285,0.23,0
550,-0.29,0.23,0
551,-0.275,0.235,0
552,-0.27,0.225,0
553,-0.285,0.2,0
554,-0.31,0.2,0
555,-0.305,0.21,0
556,-0.31,0.23,0
557,-0.295,0.21,0
558,-0.295,0.22,0
559,-0.295,0.205,0
560,-0.31,0.195,0
561,-0.305,0.195,0
562,-0.3,0.205,0
563,-0.295,0.205,0
564,-0.3,0.19,0
565,-0.315,0.19,0
566,-0.32,0.19,0
567,-0.31,0.185,0
568,-0.305,0.2,0
569,-0.305,0.19,0
570,-0.315,0.195,0
571,-0.32,0.185,0
572,-0.335,0.175,0
573,-0.325,0.185,0
574,-0.315,0.195,0
575,-0.315,0.195,0
576,-0.305,0.195,0
577,-0.315,0.185,0
578,-0.32,0.175,0
579,-0.32,0.18,0
580,-0.31,0.195,0
581,-0.31,0.19,0
582,-0.325,0.19,0
583,-0.315,0.175,0
584,-0.32,0.165,0
585,-0.32,0.185,0
586,-0.33,0.185,0
587,-0.31,0.18,0
588,-0.305,0.18,0
589,-0.32,0.17,0
590,-0.325,0.175,0
591,-0.32,0.17,0
592,-0.31,0.175,0
593,-0.305,0.18,0
594,-0.315,0.175,0
595,-0.325,0.16,0
596,-0.33,0.155,0
597,-0.32,0.175,0
598,-0.31,0.18,0
599,-0.305,0.175,0
600,-0.295,0.175,0
601,-0.295,0.17,0
602,-0.305,0.17,0
603,-0.3,0.175,0
604,-0.275,0.18,0
605,-0.27,0.185,0
606,-0.27,0.185,0
607,-0.26,0.185,0
608,-0.24,0.195,0
609,-0.165,0.2,0
610,-0.005,0.24,0
611,0.32,0.28,0
612,0.77,0.415,0
613,0.905,0.705,0
614,0.565,0.965,0
615,0.16,0.905,1
616,-0.015,0.645,0
617,-0.005,0.445,0
618,0.015,0.39,0
619,-0.025,0.365,0
620,-0.075,0.345,0
621,-0.085,0.33,0
622,-0.085,0.315,0
623,-0.08,0.305,0
624,-0.085,0.29,0
625,-0.08,0.255,0
626,-0.095,0.235,0
627,-0.105,0.21,0
628,-0.11,0.18,0
629,-0.13,0.16,0
630,-0.145,0.12,0
631,-0.185,0.09,0
632,-0.195,0.075,0
633,-0.21,0.065,0
634,-0.235,0.06,0
635,-0.265,0.03,0
636,-0.305,0.01,0
637,-0.36,-0.015,0
638,-0.41,-0.04,0
639,-0.46,-0.05,0
640,-0.51,-0.065,0
641,-0.595,-0.095,0
642,-0.695,-0.11,0
643,-0.765,-0.125,0
644,-0.83,-0.145,0
645,-0.865,-0.155,0
646,-0.92,-0.15,0
647,-0.965,-0.17,0
648,-0.995,-0.195,0
649,-1.015,-0.235,0
650,-1.045,-0.29,0
651,-1.05,-0.325,0
652,-1.035,-0.365,0
653,-1.025,-0.395,0
654,-1.045,-0.4,0
655,-1.045,-0.45,0
656,-1.04,-0.48,0
657,-1.02,-0.515,0
658,-1.005,-0.545,0
659,-0.97,-0.58,0
660,-0.93,-0.595,0
661,-0.91,-0.64,0
662,-0.87,-0.67,0
663,-0.805,-0.68,0
664,-0.735,-0.67,0
665,-0.685,-0.64,0
666,-0.63,-0.605,0
667,-0.585,-0.555,0
668,-0.545,-0.505,0
669,-0.495,-0.43,0
670,-0.46,-0.36,0
671,-0.425,-0.295,0
672,-0.4,-0.235,0
673,-0.385,-0.185,0
674,-0.385,-0.135,0
675,-0.375,-0.085,0
676,-0.345,-0.045,0
677,-0.335,0.0,0
678,-0.315,0.015,0
679,-0.31,0.03,0
680,-0.325,0.045,0
681,-0.31,0.075,0
682,-0.295,0.09,0
683,-0.285,0.11,0
684,-0.29,0.105,0
685,-0.285,0.12,0
686,-0.28,0.155,0
687,-0.27,0.19,0
688,-0.225,0.22,0
689,-0.185,0.235,0
690,-0.18,0.26,0
691,-0.175,0.27,0
692,-0.175,0.285,0
693,-0.17,0.3,0
694,-0.135,0.315,0
695,-0.11,0.305,0
696,-0.09,0.32,0
697,-0.08,0.305,0
698,-0.085,0.31,0
699,-0.06,0.325,0
700,-0.065,0.355,0
701,-0.07,0.35,0
702,-0.08,0.345,0
703,-0.095,0.33,0
704,-0.105,0.32,0
705,-0.1,0.335,0
706,-0.105,0.35,0
707,-0.09,0.355,0
708,-0.09,0.355,0
709,-0.095,0.345,0
710,-0.1,0.34,0
711,-0.1,0.345,0
712,-0.08,0.37,0
713,-0.07,0.37,0
714,-0.075,0.375,0
715,-0.09,0.375,0
716,-0.1,0.365,0
717,-0.095,0.37,0
718,-0.085,0.385,0
719,-0.06,0.395,0
720,-0.05,0.395,0
721,-0.06,0.395,0
722,-0.055,0.395,0
723,-0.04,0.4,0
724,-0.03,0.425,0
725,-0.02,0.425,0
726,-0.015,0.43,0
727,-0.04,0.43,0
728,-0.05,0.425,0
729,-0.045,0.44,0
730,-0.03,0.46,0
731,-0.005,0.475,0
732,-0.005,0.47,0
733,-0.025,0.455,0
734,-0.03,0.47,0
735,-0.005,0.485,0
736,0.0,0.5,0
737,0.0,0.505,0
738,0.015,0.5,0
739,0.01,0.495,0
740,-0.005,0.515,0
741,0.02,0.515,0
742,0.03,0.545,0
743,0.03,0.55,0
744,0.06,0.535,0
745,0.065,0.53,0
746,0.03,0.53,0
747,0.045,0.545,0
748,0.055,0.55,0
749,0.05,0.555,0
750,0.05,0.55,0
751,0.045,0.53,0
752,0.025,0.53,0
753,0.03,0.54,0
754,0.035,0.54,0
755,0.035,0.545,0
756,0.03,0.54,0
757,0.01,0.52,0
758,0.0,0.505,0
759,-0.015,0.505,0
760,0.005,0.525,0
761,-0.005,0.505,0
762,-0.02,0.48,0
763,-0.03,0.47,0
764,-0.055,0.46,0
765,-0.05,0.46,0
766,-0.065,0.46,0
767,-0.07,0.435,0
768,-0.095,0.44,0
769,-0.11,0.41,0
770,-0.125,0.4,0
771,-0.12,0.395,0
772,-0.13,0.4,0
773,-0.11,0.395,0
774,-0.115,0.37,0
775,-0.125,0.35,0
776,-0.155,0.35,0
777,-0.16,0.34,0
778,-0.17,0.34,0
779,-0.175,0.33,0
780,-0.18,0.325,0
781,-0.19,0.3,0
782,-0.2,0.295,0
783,-0.205,0.295,0
784,-0.195,0.295,0
785,-0.19,0.285,0
786,-0.19,0.265,0
787,-0.2,0.26,0
788,-0.2,0.265,0
789,-0.205,0.255,0
790,-0.205,0.26,0
791,-0.19,0.255,0
792,-0.2,0.245,0
793,-0.195,0.225,0
794,-0.21,0.215,0
795,-0.225,0.22,0
796,-0.225,0.235,0
797,-0.22,0.22,0
798,-0.225,0.21,0
799,-0.265,0.2,0
800,-0.27,0.19,0
801,-0.255,0.2,0
802,-0.24,0.215,0
803,-0.235,0.22,0
804,-0.245,0.205,0
805,-0.25,0.195,0
806,-0.265,0.195,0
807,-0.26,0.195,0
808,-0.275,0.2,0
809,-0.265,0.205,0
810,-0.255,0.19,0
811,-0.255,0.18,0
812,-0.275,0.175,0
813,-0.255,0.195,0
814,-0.255,0.2,0
815,-0.26,0.195,0
816,-0.26,0.195,0
817,-0.27,0.19,0
818,-0.27,0.185,0
819,-0.27,0.185,0
820,-0.26,0.2,0
821,-0.265,0.195,0
822,-0.275,0.195,0
823,-0.28,0.18,0
824,-0.3,0.175,0
825,-0.29,0.18,0
826,-0.29,0.19,0
827,-0.285,0.19,0
828,-0.285,0.185,0
829,-0.3,0.185,0
830,-0.32,0.17,0
831,-0.295,0.175,0
832,-0.29,0.195,0
833,-0.29,0.19,0
834,-0.3,0.175,0
835,-0.315,0.165,0
836,-0.32,0.16,0
837,-0.315,0.165,0
838,-0.31,0.175,0
839,-0.305,0.175,0
840,-0.305,0.17,0
841,-0.32,0.16,0
842,-0.32,0.145,0
843,-0.32,0.145,0
844,-0.305,0.16,0
845,-0.3,0.165,0
846,-0.305,0.165,0
847,-0.315,0.145,0
848,-0.32,0.135,0
849,-0.325,0.155,0
850,-0.335,0.16,0
851,-0.33,0.145,0
852,-0.33,0.145,0
853,-0.32,0.13,0
854,-0.33,0.13,0
855,-0.33,0.14,0
856,-0.315,0.14,0
857,-0.325,0.135,0
858,-0.325,0.135,0
859,-0.33,0.115,0
860,-0.335,0.115,0
861,-0.325,0.13,0
862,-0.315,0.135,0
863,-0.31,0.135,0
864,-0.315,0.135,0
865,-0.325,0.12,0
866,-0.345,0.12,0
867,-0.35,0.12,0
868,-0.34,0.135,0
869,-0.33,0.125,0
870,-0.325,0.135,0
871,-0.325,0.11,0
872,-0.33,0.105,0
873,-0.34,0.12,0
874,-0.335,0.135,0
875,-0.325,0.13,0
876,-0.325,0.13,0
877,-0.325,0.12,0
878,-0.335,0.115,0
879,-0.34,0.125,0
880,-0.33,0.125,0
881,-0.32,0.12,0
882,-0.31,0.12,0
883,-0.32,0.11,0
884,-0.335,0.115,0
885,-0.33,0.115,0
886,-0.32,0.115,0
887,-0.315,0.125,0
888,-0.29,0.13,0
889,-0.31,0.12,0
890,-0.315,0.12,0
891,-0.3,0.125,0
892,-0.28,0.135,0
893,-0.27,0.135,0
894,-0.255,0.125,0
895,-0.225,0.13,0
896,-0.165,0.15,0
897,0.02,0.17,0
898,0.445,0.23,0
899,0.8,0.47,0
900,0.66,0.815,0
901,0.245,0.835,1
902,-0.02,0.56,0
903,-0.055,0.355,0
904,-0.015,0.32,0
905,0.0,0.32,0
906,-0.03,0.295,0
907,-0.05,0.26,0
908,-0.08,0.235,0
909,-0.08,0.24,0
910,-0.07,0.24,0
911,-0.05,0.22,0
912,-0.065,0.185,0
913,-0.07,0.155,0
914,-0.095,0.105,0
915,-0.095,0.08,0
916,-0.105,0.075,0
917,-0.105,0.055,0
918,-0.1,0.03,0
919,-0.14,0.005,0
920,-0.175,-0.015,0
921,-0.21,-0.025,0
922,-0.245,-0.03,0
923,-0.28,-0.06,0
924,-0.325,-0.09,0
925,-0.385,-0.12,0
926,-0.475,-0.135,0
927,-0.565,-0.145,0
928,-0.65,-0.145,0
929,-0.7,-0.16,0
930,-0.75,-0.17,0
931,-0.825,-0.2,0
932,-0.895,-0.21,0
933,-0.945,-0.23,0
934,-0.97,-0.25,0
935,-0.99,-0.305,0
936,-0.995,-0.35,0
937,-1.01,-0.405,0
938,-1.035,-0.43,0
939,-1.03,-0.44,0
940,-1.04,-0.455,0
941,-1.005,-0.485,0
942,-1.01,-0.53,0
943,-0.99,-0.56,0
944,-0.985,-0.59,0
945,-0.95,-0.615,0
946,-0.895,-0.635,0
947,-0.83,-0.67,0
948,-0.755,-0.68,0
949,-0.725,-0.67,0
950,-0.685,-0.64,0
951,-0.635,-0.59,0
952,-0.56,-0.54,0
953,-0.515,-0.48,0
954,-0.455,-0.43,0
955,-0.44,-0.375,0
956,-0.415,-0.315,0
957,-0.39,-0.245,0
958,-0.365,-0.185,0
959,-0.345,-0.15,0
960,-0.34,-0.11,0
961,-0.325,-0.08,0
962,-0.33,-0.065,0
963,-0.3,-0.03,0
964,-0.305,0.005,0
965,-0.295,0.02,0
966,-0.29,0.03,0
967,-0.305,0.03,0
968,-0.315,0.035,0
969,-0.31,0.075,0
970,-0.3,0.1,0
971,-0.29,0.12,0
972,-0.27,0.13,0
973,-0.255,0.15,0
974,-0.25,0.175,0
975,-0.22,0.195,0
976,-0.215,0.23,0
977,-0.2,0.24,0
978,-0.19,0.245,0
979,-0.175,0.235,0
980,-0.195,0.235,0
981,-0.17,0.24,0
982,-0.165,0.255,0
983,-0.16,0.27,0
984,-0.15,0.26,0
985,-0.165,0.245,0
986,-0.165,0.255,0
987,-0.15,0.255,0
988,-0.145,0.285,0
989,-0.135,0.28,0
990,-0.14,0.275,0
991,-0.135,0.27,0
992,-0.15,0.275,0
993,-0.135,0.285,0
994,-0.11,0.3,0
995,-0.11,0.295,0
996,-0.105,0.3,0
997,-0.11,0.28,0
998,-0.125,0.285,0
999,-0.105,0.32,0
1000,-0.1,0.32,0
1001,-0.095,0.32,0
1002,-0.1,0.32,0
1003,-0.11,0.315,0
1004,-0.105,0.325,0
1005,-0.1,0.335,0
1006,-0.085,0.345,0
1007,-0.07,0.345,0
1008,-0.08,0.34,0
1009,-0.085,0.35,0
1010,-0.08,0.365,0
1011,-0.07,0.39,0
1012,-0.05,0.39,0
1013,-0.045,0.4,0
1014,-0.06,0.395,0
1015,-0.06,0.395,0
1016,-0.07,0.415,0
1017,-0.05,0.435,0
1018,-0.035,0.435,0
1019,-0.035,0.445,0
1020,-0.04,0.435,0
1021,-0.055,0.44,0
1022,-0.035,0.46,0
1023,-0.03,0.475,0
1024,-0.015,0.475,0
1025,-0.005,0.47,0
1026,-0.005,0.46,0
1027,-0.005,0.455,0
1028,0.005,0.465,0
1029,0.015,0.48,0
1030,0.025,0.475,0
1031,0.04,0.485,0
1032,0.025,0.47,0
1033,0.025,0.47,0
1034,0.04,0.48,0
1035,0.05,0.485,0
1036,0.065,0.485,0
1037,0.07,0.485,0
1038,0.07,0.48,0
1039,0.065,0.475,0
1040,0.07,0.485,0
1041,0.085,0.485,0
1042,0.1,0.49,0
1043,0.11,0.485,0
1044,0.1,0.47,0
1045,0.08,0.48,0
1046,0.085,0.475,0
1047,0.075,0.48,0
1048,0.06,0.47,0
1049,0.035,0.445,0
1050,0.015,0.43,0
1051,0.0,0.425,0
1052,-0.01,0.415,0
1053,-0.005,0.425,0
1054,-0.02,0.41,0
1055,-0.03,0.395,0
1056,-0.05,0.375,0
1057,-0.08,0.37,0
1058,-0.085,0.355,0
1059,-0.08,0.35,0
1060,-0.065,0.355,0
1061,-0.08,0.33,0
1062,-0.095,0.315,0
1063,-0.105,0.305,0
1064,-0.115,0.305,0
1065,-0.11,0.315,0
1066,-0.11,0.29,0
1067,-0.12,0.285,0
1068,-0.125,0.275,0
1069,-0.145,0.25,0
1070,-0.14,0.255,0
1071,-0.135,0.26,0
1072,-0.135,0.255,0
1073,-0.14,0.235,0
1074,-0.155,0.24,0
1075,-0.17,0.21,0
1076,-0.165,0.22,0
1077,-0.15,0.225,0
1078,-0.15,0.22,0
1079,-0.17,0.205,0
1080,-0.175,0.195,0
1081,-0.175,0.185,0
1082,-0.175,0.19,0
1083,-0.17,0.205,0
1084,-0.17,0.185,0
1085,-0.165,0.185,0
1086,-0.165,0.17,0
1087,-0.19,0.16,0
1088,-0.19,0.175,0
1089,-0.19,0.185,0
1090,-0.175,0.18,0
1091,-0.175,0.16,0
1092,-0.19,0.155,0
1093,-0.2,0.155,0
1094,-0.19,0.155,0
1095,-0.19,0.165,0
1096,-0.195,0.175,0
1097,-0.195,0.175,0
1098,-0.205,0.155,0
1099,-0.21,0.145,0
1100,-0.195,0.155,0
1101,-0.2,0.17,0
1102,-0.18,0.155,0
1103,-0.185,0.155,0
1104,-0.19,0.145,0
1105,-0.2,0.15,0
1106,-0.2,0.155,0
1107,-0.2,0.155,0
1108,-0.185,0.15,0
1109,-0.21,0.14,0
1110,-0.21,0.135,0
1111,-0.215,0.13,0
1112,-0.21,0.14,0
1113,-0.21,0.145,0
1114,-0.21,0.15,0
1115,-0.215,0.14,0
1116,-0.21,0.125,0
1117,-0.24,0.135,0
1118,-0.23,0.145,0
1119,-0.215,0.155,0
1120,-0.215,0.16,0
1121,-0.22,0.145,0
1122,-0.23,0.14,0
1123,-0.24,0.125,0
1124,-0.24,0.14,0
1125,-0.24,0.14,0
1126,-0.225,0.14,0
1127,-0.225,0.135,0
1128,-0.24,0.125,0
1129,-0.245,0.115,0
1130,-0.245,0.135,0
1131,-0.245,0.14,0
1132,-0.24,0.12,0
1133,-0.24,0.12,0
1134,-0.255,0.115,0
1135,-0.255,0.12,0
1136,-0.255,0.125,0
1137,-0.25,0.12,0
1138,-0.24,0.11,0
1139,-0.24,0.11,0
1140,-0.25,0.1,0
1141,-0.255,0.095,0
1142,-0.26,0.105,0
1143,-0.245,0.115,0
1144,-0.245,0.12,0
1145,-0.255,0.11,0
1146,-0.265,0.095,0
1147,-0.265,0.09,0
1148,-0.265,0.105,0
1149,-0.26,0.115,0
1150,-0.255,0.115,0
1151,-0.25,0.11,0
1152,-0.26,0.1,0
1153,-0.285,0.095,0
1154,-0.27,0.11,0
1155,-0.265,0.105,0
1156,-0.27,0.11,0
1157,-0.26,0.105,0
1158,-0.27,0.095,0
1159,-0.275,0.09,0
1160,-0.275,0.095,0
1161,-0.26,0.1,0
1162,-0.26,0.1,0
1163,-0.265,0.1,0
1164,-0.27,0.085,0
1165,-0.275,0.09,0
1166,-0.27,0.085,0
1167,-0.275,0.105,0
1168,-0.26,0.11,0
1169,-0.26,0.1,0
1170,-0.275,0.09,0
1171,-0.28,0.095,0
1172,-0.28,0.1,0
1173,-0.265,0.1,0
1174,-0.255,0.115,0
1175,-0.25,0.1,0
1176,-0.26,0.095,0
1177,-0.26,0.095,0
1178,-0.255,0.095,0
1179,-0.24,0.12,0
1180,-0.215,0.115,0
1181,-0.195,0.11,0
1182,-0.15,0.115,0
1183,-0.04,0.125,0
1184,0.31,0.155,0
1185,0.79,0.285,0
1186,0.88,0.63,0
1187,0.48,0.825,0
1188,0.095,0.625,1
1189,-0.025,0.385,0
1190,0.005,0.29,0
1191,0.025,0.29,0
1192,0.025,0.29,0
1193,0.0,0.255,0
1194,-0.035,0.23,0
1195,-0.05,0.22,0
1196,-0.045,0.21,0
1197,-0.045,0.205,0
1198,-0.04,0.17,0
1199,-0.05,0.135,0
1200,-0.085,0.095,0
1201,-0.095,0.075,0
1202,-0.11,0.06,0
1203,-0.12,0.045,0
1204,-0.13,0.035,0
1205,-0.16,0.01,0
1206,-0.215,-0.025,0
1207,-0.27,-0.03,0
1208,-0.315,-0.055,0
1209,-0.345,-0.065,0
1210,-0.4,-0.09,0
1211,-0.475,-0.12,0
1212,-0.57,-0.14,0
1213,-0.66,-0.145,0
1214,-0.72,-0.145,0
1215,-0.765,-0.155,0
1216,-0.82,-0.165,0
1217,-0.885,-0.195,0
1218,-0.945,-0.25,0
1219,-0.975,-0.31,0
1220,-0.985,-0.36,0
1221,-1.005,-0.39,0
1222,-0.99,-0.44,0
1223,-1.0,-0.47,0
1224,-1.005,-0.515,0
1225,-1.015,-0.565,0
1226,-1.005,-0.595,0
1227,-0.99,-0.64,0
1228,-0.96,-0.68,0
1229,-0.93,-0.705,0
1230,-0.895,-0.755,0
1231,-0.84,-0.765,0
1232,-0.775,-0.755,0
1233,-0.705,-0.725,0
1234,-0.65,-0.69,0
1235,-0.59,-0.66,0
1236,-0.55,-0.615,0
1237,-0.51,-0.56,0
1238,-0.475,-0.49,0
1239,-0.43,-0.425,0
1240,-0.395,-0.365,0
1241,-0.375,-0.315,0
1242,-0.37,-0.275,0
1243,-0.375,-0.23,0
1244,-0.365,-0.185,0
1245,-0.345,-0.15,0
1246,-0.32,-0.125,0
1247,-0.3,-0.1,0
1248,-0.295,-0.085,0
1249,-0.3,-0.08,0
1250,-0.305,-0.045,0
1251,-0.295,-0.02,0
1252,-0.28,-0.005,0
1253,-0.275,0.01,0
1254,-0.28,0.025,0
1255,-0.28,0.045,0
1256,-0.275,0.085,0
1257,-0.245,0.12,0
1258,-0.215,0.145,0
1259,-0.205,0.16,0
1260,-0.21,0.175,0
1261,-0.225,0.175,0
1262,-0.21,0.19,0
1263,-0.19,0.215,0
1264,-0.165,0.205,0
1265,-0.16,0.2,0
1266,-0.165,0.2,0
1267,-0.17,0.22,0
1268,-0.155,0.22,0
1269,-0.16,0.22,0
1270,-0.145,0.225,0
1271,-0.145,0.225,0
1272,-0.16,0.225,0
1273,-0.155,0.22,0
1274,-0.145,0.225,0
1275,-0.125,0.245,0
1276,-0.125,0.245,0
1277,-0.12,0.25,0
1278,-0.12,0.245,0
1279,-0.13,0.245,0
1280,-0.115,0.265,0
1281,-0.105,0.265,0
1282,-0.105,0.265,0
1283,-0.1,0.26,0
1284,-0.105,0.255,0
1285,-0.11,0.265,0
1286,-0.11,0.28,0
1287,-0.085,0.29,0
1288,-0.075,0.285,0
1289,-0.09,0.285,0
1290,-0.07,0.285,0
1291,-0.09,0.28,0
1292,-0.07,0.3,0
1293,-0.065,0.315,0
1294,-0.05,0.33,0
1295,-0.06,0.32,0
1296,-0.055,0.325,0
1297,-0.055,0.335,0
1298,-0.05,0.335,0
1299,-0.03,0.36,0
1300,-0.03,0.355,0
1301,-0.015,0.36,0
1302,-0.01,0.36,0
1303,-0.02,0.365,0
1304,-0.015,0.38,0
1305,-0.005,0.4,0
1306,0.005,0.395,0
1307,0.005,0.395,0
1308,0.005,0.4,0
1309,0.005,0.405,0
1310,0.01,0.415,0
1311,0.025,0.435,0
1312,0.045,0.44,0
1313,0.04,0.435,0
1314,0.035,0.425,0
1315,0.045,0.44,0
1316,0.035,0.45,0
1317,0.05,0.465,0
1318,0.045,0.455,0
1319,0.06,0.455,0
1320,0.055,0.45,0
1321,0.03,0.445,0
1322,0.04,0.46,0
1323,0.045,0.47,0
1324,0.06,0.45,0
1325,0.055,0.455,0
1326,0.03,0.44,0
1327,0.025,0.435,0
1328,0.025,0.435,0
1329,0.03,0.445,0
1330,0.025,0.43,0
1331,0.005,0.42,0
1332,0.0,0.41,0
1333,-0.02,0.405,0
1334,-0.015,0.415,0
1335,-0.01,0.415,0
1336,-0.02,0.405,0
1337,-0.025,0.385,0
1338,-0.05,0.355,0
1339,-0.055,0.36,0
1340,-0.06,0.355,0
1341,-0.065,0.36,0
1342,-0.07,0.35,0
1343,-0.075,0.325,0
1344,-0.085,0.305,0
1345,-0.11,0.29,0
1346,-0.11,0.3,0
1347,-0.105,0.3,0
1348,-0.105,0.285,0
1349,-0.12,0.275,0
1350,-0.135,0.245,0
1351,-0.145,0.24,0
1352,-0.145,0.245,0
1353,-0.145,0.25,0
1354,-0.13,0.235,0
1355,-0.15,0.22,0
1356,-0.15,0.2,0
1357,-0.16,0.2,0
1358,-0.17,0.205,0
1359,-0.16,0.22,0
1360,-0.15,0.21,0
1361,-0.165,0.2,0
1362,-0.165,0.195,0
1363,-0.185,0.185,0
1364,-0.19,0.19,0
1365,-0.18,0.205,0
1366,-0.185,0.215,0
1367,-0.185,0.195,0
1368,-0.195,0.19,0
1369,-0.21,0.18,0
1370,-0.215,0.205,0
1371,-0.2,0.195,0
1372,-0.205,0.19,0
1373,-0.195,0.175,0
1374,-0.21,0.17,0
1375,-0.215,0.16,0
1376,-0.21,0.165,0
1377,-0.2,0.16,0
1378,-0.19,0.155,0
1379,-0.18,0.14,0
1380,-0.175,0.145,0
1381,-0.185,0.13,0
1382,-0.2,0.13,0
1383,-0.195,0.14,0
1384,-0.18,0.145,0
1385,-0.185,0.13,0
1386,-0.185,0.13,0
1387,-0.195,0.13,0
1388,-0.185,0.145,0
1389,-0.175,0.155,0
1390,-0.165,0.145,0
1391,-0.145,0.14,0
1392,-0.155,0.13,0
1393,-0.16,0.125,0
1394,-0.15,0.14,0
1395,-0.155,0.15,0
1396,-0.155,0.155,0
1397,-0.155,0.14,0
1398,-0.19,0.125,0
1399,-0.21,0.105,0
1400,-0.215,0.12,0
1401,-0.215,0.125,0
1402,-0.21,0.115,0
1403,-0.215,0.105,0
1404,-0.235,0.1,0
1405,-0.25,0.09,0
1406,-0.255,0.09,0
1407,-0.245,0.095,0
1408,-0.255,0.09,0
1409,-0.25,0.09,0
1410,-0.26,0.075,0
1411,-0.28,0.075,0
1412,-0.27,0.075,0
1413,-0.275,0.08,0
1414,-0.27,0.075,0
1415,-0.27,0.07,0
1416,-0.28,0.05,0
1417,-0.305,0.055,0
1418,-0.285,0.065,0
1419,-0.29,0.065,0
1420,-0.265,0.075,0
1421,-0.28,0.05,0
1422,-0.295,0.05,0
1423,-0.305,0.045,0
1424,-0.3,0.06,0
1425,-0.28,0.06,0
1426,-0.29,0.055,0
1427,-0.28,0.055,0
1428,-0.29,0.045,0
1429,-0.3,0.04,0
1430,-0.295,0.045,0
1431,-0.29,0.05,0
1432,-0.28,0.045,0
1433,-0.285,0.045,0
1434,-0.295,0.04,0
1435,-0.295,0.04,0
1436,-0.29,0.05,0
1437,-0.29,0.05,0
1438,-0.28,0.055,0
1439,-0.275,0.055,0
1440,-0.29,0.035,0
1441,-0.285,0.04,0
1442,-0.29,0.045,0
1443,-0.275,0.065,0
1444,-0.285,0.055,0
1445,-0.285,0.05,0
1446,-0.285,0.045,0
1447,-0.295,0.035,0
1448,-0.295,0.035,0
1449,-0.285,0.05,0
1450,-0.27,0.055,0
1451,-0.265,0.055,0
1452,-0.275,0.035,0
1453,-0.28,0.045,0
1454,-0.285,0.05,0
1455,-0.265,0.06,0
1456,-0.25,0.06,0
1457,-0.25,0.055,0
1458,-0.235,0.05,0
1459,-0.245,0.045,0
1460,-0.22,0.07,0
1461,-0.18,0.09,0
1462,-0.11,0.11,0
1463,0.095,0.125,0
1464,0.555,0.185,0
1465,0.955,0.49,0
1466,0.87,0.85,0
1467,0.525,0.85,0
1468,0.365,0.585,0
1469,0.43,0.435,0
1470,0.53,0.405,0
1471,0.62,0.415,0
1472,0.72,0.4,0
1473,0.875,0.4,0
1474,1.06,0.38,0
1475,1.24,0.38,0
1476,1.375,0.365,0
1477,1.425,0.325,1
1478,1.385,0.255,0
1479,1.21,0.145,0
1480,0.975,-0.005,0
1481,0.71,-0.14,0
1482,0.48,-0.27,0
1483,0.265,-0.35,0
1484,0.05,-0.375,0
1485,-0.145,-0.35,0
1486,-0.305,-0.325,0
1487,-0.395,-0.285,0
1488,-0.435,-0.23,0
1489,-0.45,-0.18,0
1490,-0.455,-0.13,0
1491,-0.44,-0.06,0
1492,-0.435,-0.02,0
1493,-0.42,-0.01,0
1494,-0.425,0.0,0
1495,-0.435,0.005,0
1496,-0.42,0.015,0
1497,-0.42,0.025,0
1498,-0.405,0.015,0
1499,-0.41,0.015,0
1500,-0.43,0.0,0
1501,-0.43,0.005,0
1502,-0.43,0.005,0
1503,-0.425,0.005,0
1504,-0.425,0.005,0
1505,-0.43,-0.005,0
1506,-0.45,-0.005,0
1507,-0.465,0.0,0
1508,-0.46,0.0,0
1509,-0.45,0.01,0
1510,-0.44,0.005,0
1511,-0.445,-0.01,0
1512,-0.455,-0.02,0
1513,-0.48,-0.01,0
1514,-0.465,-0.01,0
1515,-0.46,-0.005,0
1516,-0.46,-0.005,0
1517,-0.46,-0.025,0
1518,-0.48,-0.03,0
1519,-0.5,-0.035,0
1520,-0.5,-0.03,0
1521,-0.49,-0.015,0
1522,-0.505,-0.02,0
1523,-0.495,-0.025,0
1524,-0.5,-0.045,0
1525,-0.525,-0.04,0
1526,-0.505,-0.04,0
1527,-0.51,-0.03,0
1528,-0.51,-0.04,0
1529,-0.53,-0.04,0
1530,-0.535,-0.055,0
1531,-0.55,-0.065,0
1532,-0.545,-0.06,0
1533,-0.535,-0.05,0
1534,-0.545,-0.055,0
1535,-0.54,-0.065,0
1536,-0.55,-0.07,0
1537,-0.57,-0.075,0
1538,-0.565,-0.075,0
1539,-0.55,-0.055,0
1540,-0.545,-0.06,0
1541,-0.555,-0.08,0
1542,-0.58,-0.08,0
1543,-0.58,-0.08,0
1544,-0.59,-0.08,0
1545,-0.575,-0.07,0
1546,-0.575,-0.07,0
1547,-0.57,-0.085,0
1548,-0.585,-0.1,0
1549,-0.6,-0.09,0
1550,-0.58,-0.09,0
1551,-0.585,-0.08,0
1552,-0.58,-0.085,0
1553,-0.59,-0.095,0
1554,-0.59,-0.1,0
1555,-0.6,-0.1,0
1556,-0.585,-0.1,0
1557,-0.57,-0.08,0
1558,-0.565,-0.08,0
1559,-0.565,-0.09,0
1560,-0.57,-0.1,0
1561,-0.585,-0.09,0
1562,-0.565,-0.08,0
1563,-0.56,-0.065,0
1564,-0.545,-0.07,0
1565,-0.54,-0.075,0
1566,-0.555,-0.08,0
1567,-0.545,-0.07,0
1568,-0.535,-0.06,0
1569,-0.51,-0.05,0
1570,-0.495,-0.045,0
1571,-0.495,-0.05,0
1572,-0.49,-0.035,0
1573,-0.49,-0.045,0
1574,-0.465,-0.03,0
1575,-0.455,-0.005,0
1576,-0.44,0.0,0
1577,-0.445,-0.01,0
1578,-0.435,-0.005,0
1579,-0.425,0.01,0
1580,-0.395,0.03,0
1581,-0.39,0.035,0
1582,-0.375,0.045,0
1583,-0.36,0.045,0
1584,-0.345,0.045,0
1585,-0.345,0.05,0
1586,-0.33,0.075,0
1587,-0.31,0.085,0
1588,-0.3,0.085,0
1589,-0.29,0.08,0
1590,-0.295,0.075,0
1591,-0.3,0.09,0
1592,-0.28,0.09,0
1593,-0.27,0.11,0
1594,-0.265,0.11,0
1595,-0.265,0.115,0
1596,-0.265,0.105,0
1597,-0.26,0.11,0
1598,-0.265,0.11,0
1599,-0.26,0.12,0
1600,-0.255,0.115,0
1601,-0.255,0.115,0
1602,-0.25,0.115,0
1603,-0.26,0.09,0
1604,-0.255,0.11,0
1605,-0.26,0.11,0
1606,-0.25,0.12,0
1607,-0.255,0.115,0
1608,-0.255,0.1,0
1609,-0.265,0.095,0
1610,-0.255,0.105,0
1611,-0.245,0.11,0
1612,-0.25,0.105,0
1613,-0.255,0.09,0
1614,-0.27,0.085,0
1615,-0.27,0.085,0
1616,-0.27,0.09,0
1617,-0.265,0.1,0
1618,-0.26,0.105,0
1619,-0.26,0.09,0
1620,-0.275,0.085,0
1621,-0.285,0.08,0
1622,-0.295,0.085,0
1623,-0.285,0.09,0
1624,-0.265,0.09,0
1625,-0.27,0.09,0
1626,-0.275,0.075,0
1627,-0.3,0.08,0
1628,-0.28,0.08,0
1629,-0.28,0.085,0
1630,-0.275,0.08,0
1631,-0.285,0.08,0
1632,-0.3,0.065,0
1633,-0.3,0.07,0
1634,-0.305,0.09,0
1635,-0.305,0.09,0
1636,-0.295,0.08,0
1637,-0.285,0.075,0
1638,-0.305,0.075,0
1639,-0.31,0.085,0
1640,-0.31,0.085,0
1641,-0.305,0.09,0
1642,-0.295,0.105,0
1643,-0.295,0.085,0
1644,-0.31,0.07,0
1645,-0.32,0.08,0
1646,-0.315,0.095,0
1647,-0.305,0.1,0
1648,-0.3,0.095,0
1649,-0.3,0.09,0
1650,-0.305,0.09,0
1651,-0.32,0.075,0
1652,-0.31,0.085,0
1653,-0.31,0.105,0
1654,-0.29,0.1,0
1655,-0.285,0.085,0
1656,-0.305,0.085,0
1657,-0.305,0.085,0
1658,-0.31,0.085,0
1659,-0.3,0.105,0
1660,-0.295,0.1,0
1661,-0.29,0.09,0
1662,-0.305,0.075,0
1663,-0.305,0.07,0
1664,-0.3,0.09,0
1665,-0.285,0.095,0
1666,-0.29,0.09,0
1667,-0.29,0.08,0
1668,-0.295,0.07,0
1669,-0.31,0.075,0
1670,-0.3,0.075,0
1671,-0.3,0.085,0
1672,-0.28,0.085,0
1673,-0.27,0.08,0
1674,-0.29,0.075,0
1675,-0.29,0.075,0
1676,-0.295,0.085,0
1677,-0.285,0.09,0
1678,-0.27,0.085,0
1679,-0.29,0.075,0
1680,-0.3,0.065,0
1681,-0.29,0.06,0
1682,-0.29,0.07,0
1683,-0.28,0.085,0
1684,-0.275,0.075,0
1685,-0.275,0.075,0
1686,-0.28,0.07,0
1687,-0.29,0.065,0
1688,-0.285,0.075,0
1689,-0.275,0.08,0
1690,-0.27,0.09,0
1691,-0.275,0.085,0
1692,-0.285,0.075,0
1693,-0.295,0.08,0
1694,-0.29,0.095,0
1695,-0.295,0.11,0
1696,-0.29,0.105,0
1697,-0.28,0.095,0
1698,-0.29,0.085,0
1699,-0.31,0.085,0
1700,-0.3,0.1,0
1701,-0.29,0.105,0
1702,-0.28,0.105,0
1703,-0.28,0.095,0
1704,-0.29,0.085,0
1705,-0.295,0.075,0
1706,-0.28,0.08,0
1707,-0.265,0.09,0
1708,-0.26,0.075,0
1709,-0.255,0.07,0
1710,-0.25,0.07,0
1711,-0.27,0.07,0
1712,-0.265,0.065,0
1713,-0.25,0.07,0
1714,-0.25,0.08,0
1715,-0.245,0.06,0
1716,-0.245,0.055,0
1717,-0.255,0.07,0
1718,-0.25,0.075,0
1719,-0.225,0.085,0
1720,-0.21,0.065,0
1721,-0.2,0.065,0
1722,-0.205,0.06,0
1723,-0.22,0.05,0
1724,-0.21,0.065,0
1725,-0.2,0.085,0
1726,-0.2,0.08,0
1727,-0.215,0.08,0
1728,-0.245,0.06,0
1729,-0.245,0.06,0
1730,-0.25,0.075,0
1731,-0.25,0.07,0
1732,-0.245,0.06,0
1733,-0.23,0.05,0
1734,-0.25,0.05,0
1735,-0.26,0.05,0
1736,-0.265,0.05,0
1737,-0.27,0.06,0
1738,-0.25,0.05,0
1739,-0.25,0.055,0
1740,-0.245,0.035,0
1741,-0.245,0.045,0
1742,-0.22,0.05,0
1743,-0.19,0.075,0
1744,-0.145,0.075,0
1745,-0.05,0.075,0
1746,0.17,0.085,0
1747,0.57,0.155,0
1748,0.91,0.39,0
1749,0.77,0.725,1
1750,0.365,0.785,0
1751,0.095,0.55,0
1752,0.025,0.32,0
1753,0.045,0.245,0
1754,0.045,0.24,0
1755,0.02,0.235,0
1756,0.015,0.215,0
1757,0.0,0.17,0
1758,-0.01,0.17,0
1759,-0.04,0.155,0
1760,-0.03,0.145,0
1761,-0.01,0.15,0
1762,-0.005,0.13,0
1763,-0.025,0.095,0
1764,-0.03,0.055,0
1765,-0.05,0.025,0
1766,-0.055,0.02,0
1767,-0.065,0.025,0
1768,-0.06,0.01,0
1769,-0.075,-0.005,0
1770,-0.09,-0.015,0
1771,-0.13,-0.03,0
1772,-0.145,-0.03,0
1773,-0.175,-0.045,0
1774,-0.22,-0.06,0
1775,-0.26,-0.08,0
1776,-0.295,-0.105,0
1777,-0.36,-0.115,0
1778,-0.43,-0.12,0
1779,-0.51,-0.11,0
1780,-0.565,-0.125,0
1781,-0.6,-0.14,0
1782,-0.615,-0.165,0
1783,-0.655,-0.165,0
1784,-0.675,-0.175,0
1785,-0.71,-0.175,0
1786,-0.72,-0.2,0
1787,-0.735,-0.205,0
1788,-0.735,-0.225,0
1789,-0.75,-0.23,0
1790,-0.71,-0.22,0
1791,-0.66,-0.215,0
1792,-0.595,-0.205,0
1793,-0.535,-0.185,0
1794,-0.455,-0.17,0
1795,-0.415,-0.185,0
1796,-0.35,-0.175,0
1797,-0.32,-0.17,0
1798,-0.305,-0.2,0
1799,-0.335,-0.235,0
1800,-0.36,-0.3,0
1801,-0.405,-0.36,0
1802,-0.435,-0.385,0
1803,-0.45,-0.395,0
1804,-0.46,-0.385,0
1805,-0.485,-0.375,0
1806,-0.49,-0.34,0
1807,-0.495,-0.305,0
1808,-0.47,-0.245,0
1809,-0.42,-0.195,0
1810,-0.395,-0.145,0
1811,-0.36,-0.105,0
1812,-0.34,-0.065,0
1813,-0.335,-0.01,0
1814,-0.31,0.03,0
1815,-0.315,0.055,0
1816,-0.3,0.065,0
1817,-0.29,0.075,0
1818,-0.29,0.075,0
1819,-0.295,0.075,0
1820,-0.265,0.085,0
1821,-0.265,0.095,0
1822,-0.24,0.095,0
1823,-0.22,0.085,0
1824,-0.22,0.08,0
1825,-0.22,0.07,0
1826,-0.225,0.085,0
1827,-0.205,0.095,0
1828,-0.205,0.09,0
1829,-0.2,0.085,0
1830,-0.195,0.09,0
1831,-0.2,0.075,0
1832,-0.195,0.095,0
1833,-0.185,0.105,0
1834,-0.18,0.105,0
1835,-0.175,0.09,0
1836,-0.18,0.085,0
1837,-0.185,0.09,0
1838,-0.175,0.095,0
1839,-0.165,0.11,0
1840,-0.165,0.105,0
1841,-0.165,0.085,0
1842,-0.175,0.085,0
1843,-0.18,0.08,0
1844,-0.175,0.1,0
1845,-0.16,0.105,0
1846,-0.155,0.11,0
1847,-0.16,0.095,0
1848,-0.15,0.09,0
1849,-0.165,0.09,0
1850,-0.145,0.11,0
1851,-0.13,0.12,0
1852,-0.12,0.105,0
1853,-0.125,0.11,0
1854,-0.135,0.1,0
1855,-0.145,0.095,0
1856,-0.135,0.105,0
1857,-0.12,0.135,0
1858,-0.1,0.12,0
1859,-0.11,0.12,0
1860,-0.11,0.125,0
1861,-0.115,0.11,0
1862,-0.105,0.135,0
1863,-0.09,0.14,0
1864,-0.08,0.16,0
1865,-0.09,0.135,0
1866,-0.095,0.135,0
1867,-0.1,0.14,0
1868,-0.09,0.145,0
1869,-0.085,0.165,0
1870,-0.08,0.155,0
1871,-0.075,0.15,0
1872,-0.08,0.135,0
1873,-0.075,0.145,0
1874,-0.08,0.155,0
1875,-0.07,0.175,0
1876,-0.05,0.165,0
1877,-0.05,0.165,0
1878,-0.06,0.16,0
1879,-0.065,0.17,0
1880,-0.05,0.175,0
1881,-0.045,0.195,0
1882,-0.015,0.195,0
1883,-0.02,0.18,0
1884,-0.03,0.175,0
1885,-0.03,0.18,0
1886,-0.025,0.2,0
1887,0.0,0.215,0
1888,0.0,0.205,0
1889,0.0,0.205,0
1890,-0.01,0.195,0
1891,-0.015,0.195,0
1892,-0.015,0.215,0
1893,-0.01,0.23,0
1894,0.01,0.225,0
1895,0.01,0.21,0
1896,0.01,0.21,0
1897,0.005,0.215,0
1898,0.005,0.225,0
1899,0.01,0.22,0
1900,0.005,0.23,0
1901,0.015,0.23,0
1902,-0.005,0.215,0
1903,-0.01,0.21,0
1904,-0.01,0.225,0
1905,-0.005,0.22,0
1906,-0.015,0.22,0
1907,-0.015,0.22,0
1908,-0.025,0.2,0
1909,-0.045,0.205,0
1910,-0.04,0.215,0
1911,-0.04,0.225,0
1912,-0.05,0.215,0
1913,-0.055,0.2,0
1914,-0.06,0.19,0
1915,-0.09,0.2,0
1916,-0.095,0.205,0
1917,-0.085,0.215,0
1918,-0.08,0.2,0
1919,-0.085,0.185,0
1920,-0.1,0.185,0
1921,-0.115,0.175,0
1922,-0.11,0.185,0
1923,-0.115,0.19,0
1924,-0.11,0.18,0
1925,-0.115,0.17,0
1926,-0.13,0.155,0
1927,-0.135,0.155,0
1928,-0.145,0.16,0
1929,-0.14,0.165,0
1930,-0.145,0.17,0
1931,-0.15,0.155,0
1932,-0.17,0.14,0
1933,-0.185,0.13,0
1934,-0.185,0.135,0
1935,-0.18,0.135,0
1936,-0.18,0.135,0
1937,-0.185,0.13,0
1938,-0.185,0.12,0
1939,-0.205,0.12,0
1940,-0.2,0.13,0
1941,-0.2,0.135,0
1942,-0.19,0.125,0
1943,-0.19,0.115,0
1944,-0.205,0.11,0
1945,-0.23,0.105,0
1946,-0.22,0.125,0
1947,-0.2,0.13,0
1948,-0.21,0.115,0
1949,-0.215,0.115,0
1950,-0.225,0.1,0
1951,-0.24,0.105,0
1952,-0.225,0.11,0
1953,-0.22,0.12,0
1954,-0.215,0.12,0
1955,-0.225,0.095,0
1956,-0.22,0.1,0
1957,-0.235,0.1,0
1958,-0.22,0.095,0
1959,-0.205,0.11,0
1960,-0.2,0.105,0
1961,-0.225,0.09,0
1962,-0.235,0.09,0
1963,-0.245,0.08,0
1964,-0.25,0.09,0
1965,-0.235,0.105,0
1966,-0.22,0.095,0
1967,-0.21,0.095,0
1968,-0.22,0.09,0
1969,-0.23,0.08,0
1970,-0.245,0.095,0
1971,-0.24,0.11,0
1972,-0.24,0.105,0
1973,-0.245,0.09,0
1974,-0.25,0.08,0
1975,-0.26,0.075,0
1976,-0.255,0.095,0
1977,-0.255,0.095,0
1978,-0.245,0.08,0
1979,-0.245,0.085,0
1980,-0.25,0.085,0
1981,-0.25,0.08,0
1982,-0.24,0.09,0
1983,-0.23,0.105,0
1984,-0.22,0.09,0
1985,-0.23,0.085,0
1986,-0.24,0.08,0
1987,-0.255,0.08,0
1988,-0.255,0.09,0
1989,-0.24,0.105,0
1990,-0.24,0.1,0
1991,-0.235,0.095,0
1992,-0.25,0.08,0
1993,-0.265,0.095,0
1994,-0.255,0.085,0
1995,-0.26,0.09,0
1996,-0.245,0.085,0
1997,-0.25,0.08,0
1998,-0.26,0.07,0
1999,-0.27,0.085,0
2000,-0.26,0.085,0
2001,-0.25,0.085,0
2002,-0.25,0.095,0
2003,-0.26,0.085,0
2004,-0.26,0.07,0
2005,-0.255,0.075,0
2006,-0.25,0.075,0
2007,-0.25,0.085,0
2008,-0.24,0.095,0
2009,-0.245,0.085,0
2010,-0.255,0.065,0
2011,-0.26,0.06,0
2012,-0.26,0.07,0
2013,-0.255,0.08,0
2014,-0.26,0.07,0
2015,-0.26,0.065,0
2016,-0.275,0.055,0
2017,-0.275,0.06,0
2018,-0.27,0.075,0
2019,-0.255,0.07,0
2020,-0.265,0.065,0
2021,-0.26,0.065,0
2022,-0.275,0.055,0
2023,-0.305,0.06,0
2024,-0.29,0.06,0
2025,-0.285,0.055,0
2026,-0.275,0.055,0
2027,-0.275,0.05,0
2028,-0.28,0.04,0
2029,-0.29,0.05,0
2030,-0.285,0.045,0
2031,-0.28,0.06,0
2032,-0.275,0.05,0
2033,-0.265,0.035,0
2034,-0.285,0.035,0
2035,-0.3,0.035,0
2036,-0.28,0.045,0
2037,-0.28,0.06,0
2038,-0.275,0.045,0
2039,-0.275,0.04,0
2040,-0.285,0.035,0
2041,-0.29,0.04,0
2042,-0.285,0.045,0
2043,-0.27,0.055,0
2044,-0.26,0.055,0
2045,-0.275,0.045,0
2046,-0.28,0.05,0
2047,-0.295,0.04,0
2048,-0.295,0.055,0
2049,-0.285,0.06,0
2050,-0.275,0.055,0
2051,-0.285,0.045,0
2052,-0.265,0.065,0
2053,-0.27,0.07,0
2054,-0.245,0.08,0
2055,-0.22,0.105,0
2056,-0.18,0.11,0
2057,-0.105,0.115,0
2058,0.07,0.12,0
2059,0.48,0.18,0
2060,0.885,0.44,0
2061,0.77,0.79,0
2062,0.35,0.835,1
2063,0.05,0.57,0
2064,-0.025,0.335,0
2065,0.0,0.26,0
2066,0.015,0.255,0
2067,0.0,0.235,0
2068,-0.025,0.21,0
2069,-0.03,0.175,0
2070,-0.04,0.16,0
2071,-0.06,0.14,0
2072,-0.055,0.145,0
2073,-0.045,0.11,0
2074,-0.06,0.09,0
2075,-0.075,0.035,0
2076,-0.08,-0.005,0
2077,-0.08,-0.03,0
2078,-0.07,-0.03,0
2079,-0.06,-0.045,0
2080,-0.05,-0.075,0
2081,-0.09,-0.105,0
2082,-0.14,-0.14,0
2083,-0.21,-0.135,0
2084,-0.265,-0.16,0
2085,-0.32,-0.165,0
2086,-0.385,-0.2,0
2087,-0.485,-0.235,0
2088,-0.6,-0.245,0
2089,-0.695,-0.27,0
2090,-0.755,-0.26,0
2091,-0.785,-0.26,0
2092,-0.85,-0.28,0
2093,-0.915,-0.31,0
2094,-0.99,-0.34,0
2095,-1.05,-0.38,0
2096,-1.075,-0.405,0
2097,-1.065,-0.435,0
2098,-1.07,-0.485,0
2099,-1.075,-0.51,0
2100,-1.105,-0.535,0
2101,-1.1,-0.55,0
2102,-1.07,-0.58,0
2103,-1.045,-0.595,0
2104,-1.02,-0.625,0
2105,-1.0,-0.65,0
2106,-0.99,-0.675,0
2107,-0.97,-0.7,0
2108,-0.93,-0.715,0
2109,-0.87,-0.735,0
2110,-0.815,-0.765,0
2111,-0.77,-0.765,0
2112,-0.75,-0.75,0
2113,-0.715,-0.72,0
2114,-0.66,-0.675,0
2115,-0.605,-0.65,0
2116,-0.545,-0.585,0
2117,-0.495,-0.555,0
2118,-0.475,-0.515,0
2119,-0.46,-0.46,0
2120,-0.425,-0.385,0
2121,-0.405,-0.31,0
2122,-0.38,-0.27,0
2123,-0.375,-0.225,0
2124,-0.375,-0.2,0
2125,-0.355,-0.175,0
2126,-0.335,-0.13,0
2127,-0.31,-0.095,0
2128,-0.305,-0.08,0
2129,-0.29,-0.07,0
2130,-0.315,-0.065,0
2131,-0.335,-0.045,0
2132,-0.335,-0.03,0
2133,-0.325,-0.005,0
2134,-0.325,0.01,0
2135,-0.325,0.025,0
2136,-0.315,0.03,0
2137,-0.295,0.055,0
2138,-0.265,0.085,0
2139,-0.25,0.115,0
2140,-0.225,0.12,0
2141,-0.23,0.13,0
2142,-0.23,0.13,0
2143,-0.225,0.14,0
2144,-0.21,0.16,0
2145,-0.185,0.17,0
2146,-0.17,0.16,0
2147,-0.175,0.155,0
2148,-0.175,0.15,0
2149,-0.165,0.15,0
2150,-0.155,0.165,0
2151,-0.14,0.18,0
2152,-0.145,0.17,0
2153,-0.14,0.18,0
2154,-0.14,0.175,0
2155,-0.145,0.18,0
2156,-0.13,0.19,0
2157,-0.11,0.2,0
2158,-0.095,0.19,0
2159,-0.11,0.2,0
2160,-0.105,0.19,0
2161,-0.115,0.19,0
2162,-0.105,0.21,0
2163,-0.095,0.215,0
2164,-0.085,0.22,0
2165,-0.09,0.215,0
2166,-0.08,0.21,0
2167,-0.09,0.215,0
2168,-0.085,0.225,0
2169,-0.075,0.24,0
2170,-0.065,0.24,0
2171,-0.06,0.235,0
2172,-0.08,0.24,0
2173,-0.075,0.245,0
2174,-0.075,0.245,0
2175,-0.065,0.27,0
2176,-0.06,0.265,0
2177,-0.06,0.255,0
2178,-0.05,0.265,0
2179,-0.07,0.265,0
2180,-0.07,0.275,0
2181,-0.055,0.295,0
2182,-0.05,0.285,0
2183,-0.05,0.285,0
2184,-0.04,0.28,0
2185,-0.045,0.285,0
2186,-0.035,0.295,0
2187,-0.02,0.31,0
2188,-0.02,0.31,0
2189,-0.025,0.315,0
2190,-0.02,0.305,0
2191,-0.025,0.305,0
2192,-0.015,0.305,0
2193,-0.015,0.335,0
2194,-0.01,0.335,0
2195,-0.005,0.33,0
2196,-0.01,0.33,0
2197,-0.02,0.325,0
2198,-0.025,0.345,0
2199,-0.005,0.365,0
2200,0.0,0.355,0
2201,0.01,0.355,0
2202,-0.005,0.35,0
2203,-0.015,0.355,0
2204,0.0,0.365,0
2205,0.0,0.36,0
2206,0.005,0.365,0
2207,-0.005,0.355,0
2208,0.0,0.35,0
2209,-0.01,0.34,0
2210,-0.01,0.345,0
2211,0.0,0.36,0
2212,-0.005,0.355,0
2213,-0.01,0.34,0
2214,-0.025,0.335,0
2215,-0.025,0.33,0
2216,-0.015,0.35,0
2217,-0.02,0.335,0
2218,-0.015,0.325,0
2219,-0.035,0.305,0
2220,-0.05,0.3,0
2221,-0.055,0.3,0
2222,-0.065,0.31,0
2223,-0.07,0.31,0
2224,-0.075,0.29,0
2225,-0.075,0.285,0
2226,-0.09,0.275,0
2227,-0.125,0.26,0
2228,-0.105,0.265,0
2229,-0.115,0.255,0
2230,-0.125,0.255,0
2231,-0.125,0.23,0
2232,-0.135,0.22,0
2233,-0.155,0.205,0
2234,-0.155,0.215,0
2235,-0.15,0.215,0
2236,-0.15,0.195,0
2237,-0.17,0.185,0
2238,-0.17,0.175,0
2239,-0.18,0.16,0
2240,-0.18,0.175,0
2241,-0.18,0.17,0
2242,-0.165,0.17,0
2243,-0.18,0.165,0
2244,-0.2,0.135,0
2245,-0.205,0.14,0
2246,-0.195,0.14,0
2247,-0.185,0.155,0
2248,-0.18,0.135,0
2249,-0.2,0.12,0
2250,-0.21,0.11,0
2251,-0.21,0.105,0
2252,-0.215,0.125,0
2253,-0.205,0.12,0
2254,-0.195,0.11,0
2255,-0.21,0.1,0
2256,-0.21,0.095,0
2257,-0.22,0.105,0
2258,-0.22,0.095,0
2259,-0.21,0.11,0
2260,-0.205,0.09,0
2261,-0.215,0.095,0
2262,-0.205,0.085,0
2263,-0.225,0.085,0
2264,-0.215,0.09,0
2265,-0.205,0.105,0
2266,-0.2,0.095,0
2267,-0.205,0.08,0
2268,-0.21,0.085,0
2269,-0.215,0.075,0
2270,-0.22,0.085,0
2271,-0.2,0.09,0
2272,-0.2,0.095,0
2273,-0.21,0.07,0
2274,-0.215,0.07,0
2275,-0.225,0.075,0
2276,-0.22,0.075,0
2277,-0.205,0.065,0
2278,-0.21,0.08,0
2279,-0.205,0.075,0
2280,-0.215,0.055,0
2281,-0.225,0.07,0
2282,-0.22,0.075,0
2283,-0.22,0.085,0
2284,-0.22,0.085,0
2285,-0.23,0.075,0
2286,-0.23,0.065,0
2287,-0.245,0.065,0
2288,-0.23,0.08,0
2289,-0.225,0.09,0
2290,-0.22,0.075,0
2291,-0.225,0.08,0
2292,-0.23,0.07,0
2293,-0.255,0.05,0
2294,-0.245,0.065,0
2295,-0.24,0.075,0
2296,-0.24,0.07,0
2297,-0.24,0.065,0
2298,-0.25,0.045,0
2299,-0.26,0.055,0
2300,-0.26,0.065,0
2301,-0.255,0.08,0
2302,-0.25,0.06,0
2303,-0.255,0.055,0
2304,-0.255,0.055,0
2305,-0.27,0.05,0
2306,-0.275,0.065,0
2307,-0.265,0.08,0
2308,-0.255,0.06,0
2309,-0.255,0.05,0
2310,-0.28,0.05,0
2311,-0.305,0.04,0
2312,-0.28,0.06,0
2313,-0.27,0.055,0
2314,-0.28,0.05,0
2315,-0.28,0.045,0
2316,-0.285,0.045,0
2317,-0.29,0.04,0
2318,-0.285,0.045,0
2319,-0.275,0.05,0
2320,-0.28,0.055,0
2321,-0.28,0.045,0
2322,-0.285,0.035,0
2323,-0.295,0.03,0
2324,-0.3,0.045,0
2325,-0.28,0.045,0
2326,-0.29,0.05,0
2327,-0.29,0.035,0
2328,-0.29,0.025,0
2329,-0.315,0.03,0
2330,-0.3,0.03,0
2331,-0.29,0.035,0
2332,-0.29,0.03,0
2333,-0.29,0.04,0
2334,-0.3,0.025,0
2335,-0.315,0.025,0
2336,-0.3,0.035,0
2337,-0.29,0.04,0
2338,-0.295,0.03,0
2339,-0.28,0.035,0
2340,-0.29,0.025,0
2341,-0.305,0.02,0
2342,-0.305,0.04,0
2343,-0.3,0.05,0
2344,-0.285,0.045,0
2345,-0.29,0.04,0
2346,-0.295,0.035,0
2347,-0.31,0.02,0
2348,-0.295,0.035,0
2349,-0.285,0.055,0
2350,-0.285,0.04,0
2351,-0.275,0.045,0
2352,-0.28,0.035,0
2353,-0.28,0.04,0
2354,-0.24,0.05,0
2355,-0.19,0.075,0
2356,-0.1,0.085,0
2357,0.185,0.115,0
2358,0.65,0.295,0
2359,0.825,0.66,0
2360,0.51,0.85,0
2361,0.135,0.64,1
2362,-0.02,0.355,0
2363,-0.015,0.23,0
2364,0.015,0.215,0
2365,-0.015,0.205,0
2366,-0.035,0.195,0
2367,-0.04,0.19,0
2368,-0.04,0.165,0
2369,-0.04,0.155,0
2370,-0.04,0.13,0
2371,-0.055,0.09,0
2372,-0.055,0.06,0
2373,-0.065,0.035,0
2374,-0.055,0.01,0
2375,-0.075,-0.005,0
2376,-0.095,-0.035,0
2377,-0.13,-0.04,0
2378,-0.165,-0.05,0
2379,-0.195,-0.045,0
2380,-0.235,-0.075,0
2381,-0.28,-0.105,0
2382,-0.33,-0.13,0
2383,-0.4,-0.155,0
2384,-0.475,-0.16,0
2385,-0.57,-0.145,0
2386,-0.63,-0.16,0
2387,-0.685,-0.18,0
2388,-0.735,-0.2,0
2389,-0.815,-0.215,0
2390,-0.875,-0.215,0
2391,-0.925,-0.235,0
2392,-0.96,-0.28,0
2393,-0.98,-0.325,0
2394,-1.02,-0.385,0
2395,-1.035,-0.425,0
2396,-1.04,-0.425,0
2397,-1.05,-0.455,0
2398,-1.04,-0.485,0
2399,-1.035,-0.535,0
2400,-1.04,-0.58,0
2401,-1.04,-0.62,0
2402,-1.015,-0.645,0
2403,-0.975,-0.66,0
2404,-0.93,-0.7,0
2405,-0.89,-0.735,0
2406,-0.835,-0.77,0
2407,-0.78,-0.77,0
2408,-0.72,-0.735,0
2409,-0.65,-0.7,0
2410,-0.595,-0.665,0
2411,-0.54,-0.63,0
2412,-0.505,-0.585,0
2413,-0.455,-0.53,0
2414,-0.42,-0.45,0
2415,-0.38,-0.38,0
2416,-0.345,-0.33,0
2417,-0.335,-0.275,0
2418,-0.325,-0.26,0
2419,-0.315,-0.23,0
2420,-0.29,-0.19,0
2421,-0.255,-0.145,0
2422,-0.24,-0.115,0
2423,-0.225,-0.105,0
2424,-0.235,-0.1,0
2425,-0.235,-0.08,0
2426,-0.245,-0.055,0
2427,-0.24,-0.03,0
2428,-0.255,-0.035,0
2429,-0.27,-0.035,0
2430,-0.27,-0.015,0
2431,-0.275,0.005,0
2432,-0.26,0.025,0
2433,-0.245,0.06,0
2434,-0.23,0.08,0
2435,-0.22,0.1,0
2436,-0.215,0.09,0
2437,-0.22,0.12,0
2438,-0.2,0.14,0
2439,-0.195,0.15,0
2440,-0.185,0.16,0
2441,-0.18,0.14,0
2442,-0.18,0.13,0
2443,-0.18,0.145,0
2444,-0.175,0.15,0
2445,-0.165,0.155,0
2446,-0.16,0.155,0
2447,-0.155,0.155,0
2448,-0.15,0.15,0
2449,-0.16,0.155,0
2450,-0.155,0.165,0
2451,-0.145,0.175,0
2452,-0.13,0.175,0
2453,-0.14,0.17,0
2454,-0.14,0.175,0
2455,-0.15,0.195,0
2456,-0.145,0.18,0
2457,-0.13,0.205,0
2458,-0.125,0.205,0
2459,-0.125,0.185,0
2460,-0.125,0.195,0
2461,-0.135,0.205,0
2462,-0.13,0.21,0
2463,-0.11,0.225,0
2464,-0.1,0.22,0
2465,-0.115,0.215,0
2466,-0.12,0.22,0
2467,-0.12,0.225,0
2468,-0.11,0.225,0
2469,-0.085,0.245,0
2470,-0.095,0.245,0
2471,-0.095,0.24,0
2472,-0.09,0.245,0
2473,-0.095,0.25,0
2474,-0.075,0.265,0
2475,-0.075,0.285,0
2476,-0.07,0.29,0
2477,-0.055,0.275,0
2478,-0.075,0.27,0
2479,-0.075,0.285,0
2480,-0.06,0.295,0
2481,-0.055,0.315,0
2482,-0.055,0.31,0
2483,-0.05,0.3,0
2484,-0.06,0.3,0
2485,-0.065,0.315,0
2486,-0.055,0.32,0
2487,-0.04,0.335,0
2488,-0.035,0.335,0
2489,-0.04,0.345,0
2490,-0.035,0.335,0
2491,-0.03,0.335,0
2492,-0.02,0.345,0
2493,-0.005,0.365,0
2494,-0.015,0.37,0
2495,0.0,0.36,0
2496,-0.005,0.35,0
2497,-0.01,0.37,0
2498,0.005,0.36,0
2499,-0.005,0.385,0
2500,0.0,0.39,0
2501,0.015,0.375,0
2502,0.005,0.37,0
2503,0.0,0.37,0
2504,-0.005,0.37,0
2505,0.005,0.39,0
2506,0.01,0.38,0
2507,0.0,0.37,0
2508,-0.015,0.365,0
2509,-0.02,0.36,0
2510,-0.025,0.36,0
2511,-0.015,0.37,0
2512,-0.035,0.365,0
2513,-0.04,0.35,0
2514,-0.055,0.34,0
2515,-0.07,0.325,0
2516,-0.06,0.33,0
2517,-0.07,0.33,0
2518,-0.075,0.325,0
2519,-0.08,0.29,0
2520,-0.095,0.28,0
2521,-0.105,0.29,0
2522,-0.105,0.29,0
2523,-0.11,0.28,0
2524,-0.115,0.27,0
2525,-0.13,0.255,0
2526,-0.145,0.235,0
2527,-0.16,0.23,0
2528,-0.165,0.24,0
2529,-0.15,0.235,0
2530,-0.145,0.23,0
2531,-0.175,0.21,0
2532,-0.18,0.2,0
2533,-0.205,0.185,0
2534,-0.2,0.2,0
2535,-0.2,0.185,0
2536,-0.195,0.185,0
2537,-0.195,0.17,0
2538,-0.215,0.155,0
2539,-0.225,0.16,0
2540,-0.225,0.155,0
2541,-0.215,0.155,0
2542,-0.22,0.15,0
2543,-0.225,0.135,0
2544,-0.24,0.12,0
2545,-0.25,0.125,0
2546,-0.245,0.115,0
2547,-0.235,0.14,0
2548,-0.24,0.125,0
2549,-0.25,0.12,0
2550,-0.255,0.105,0
2551,-0.26,0.1,0
2552,-0.27,0.105,0
2553,-0.26,0.12,0
2554,-0.25,0.11,0
2555,-0.255,0.095,0
2556,-0.265,0.095,0
2557,-0.27,0.085,0
2558,-0.27,0.095,0
2559,-0.265,0.1,0
2560,-0.26,0.09,0
2561,-0.27,0.085,0
2562,-0.275,0.075,0
2563,-0.29,0.075,0
2564,-0.29,0.09,0
2565,-0.275,0.095,0
2566,-0.285,0.095,0
2567,-0.295,0.09,0
2568,-0.29,0.075,0
2569,-0.29,0.08,0
2570,-0.305,0.085,0
2571,-0.285,0.1,0
2572,-0.28,0.085,0
2573,-0.3,0.08,0
2574,-0.31,0.07,0
2575,-0.315,0.06,0
2576,-0.31,0.085,0
2577,-0.31,0.09,0
2578,-0.31,0.08,0
2579,-0.32,0.08,0
2580,-0.32,0.07,0
2581,-0.32,0.055,0
2582,-0.325,0.06,0
2583,-0.31,0.085,0
2584,-0.31,0.08,0
2585,-0.32,0.065,0
2586,-0.33,0.05,0
2587,-0.335,0.055,0
2588,-0.345,0.055,0
2589,-0.34,0.07,0
2590,-0.34,0.055,0
2591,-0.325,0.055,0
2592,-0.35,0.05,0
2593,-0.35,0.045,0
2594,-0.34,0.055,0
2595,-0.33,0.05,0
2596,-0.34,0.05,0
2597,-0.345,0.045,0
2598,-0.36,0.03,0
2599,-0.37,0.02,0
2600,-0.36,0.04,0
2601,-0.35,0.04,0
2602,-0.35,0.035,0
2603,-0.36,0.03,0
2604,-0.37,0.02,0
2605,-0.39,0.025,0
2606,-0.375,0.03,0
2607,-0.355,0.035,0
2608,-0.365,0.025,0
2609,-0.365,0.025,0
2610,-0.375,0.005,0
2611,-0.385,0.0,0
2612,-0.385,0.02,0
2613,-0.38,0.025,0
2614,-0.365,0.03,0
2615,-0.375,0.02,0
2616,-0.385,-0.005,0
2617,-0.39,-0.005,0
2618,-0.38,0.01,0
2619,-0.37,0.02,0
2620,-0.365,0.015,0
2621,-0.38,0.01,0
2622,-0.385,0.0,0
2623,-0.395,0.005,0
2624,-0.385,0.005,0
2625,-0.38,0.025,0
2626,-0.38,0.025,0
2627,-0.37,0.005,0
2628,-0.39,0.0,0
2629,-0.39,0.005,0
2630,-0.385,0.01,0
2631,-0.37,0.02,0
2632,-0.37,0.02,0
2633,-0.37,0.015,0
2634,-0.37,-0.005,0
2635,-0.38,0.005,0
2636,-0.36,0.01,0
2637,-0.365,0.015,0
2638,-0.36,0.01,0
2639,-0.36,0.005,0
2640,-0.365,0.01,0
2641,-0.35,0.01,0
2642,-0.34,0.02,0
2643,-0.31,0.025,0
2644,-0.28,0.025,0
2645,-0.245,0.035,0
2646,-0.155,0.04,0
2647,0.06,0.075,0
2648,0.505,0.175,0
2649,0.88,0.46,0
2650,0.75,0.785,0
2651,0.315,0.795,1
2652,0.01,0.515,0
2653,-0.07,0.29,0
2654,-0.05,0.22,0
2655,-0.035,0.225,0
2656,-0.065,0.2,0
2657,-0.095,0.165,0
2658,-0.12,0.15,0
2659,-0.125,0.125,0
2660,-0.12,0.125,0
2661,-0.125,0.12,0
2662,-0.115,0.095,0
2663,-0.125,0.05,0
2664,-0.145,0.025,0
2665,-0.16,0.0,0
2666,-0.17,-0.015,0
2667,-0.16,-0.035,0
2668,-0.17,-0.04,0
2669,-0.2,-0.07,0
2670,-0.225,-0.085,0
2671,-0.27,-0.1,0
2672,-0.31,-0.105,0
2673,-0.335,-0.12,0
2674,-0.37,-0.13,0
2675,-0.405,-0.15,0
2676,-0.445,-0.185,0
2677,-0.515,-0.205,0
2678,-0.58,-0.21,0
2679,-0.665,-0.21,0
2680,-0.715,-0.215,0
2681,-0.78,-0.24,0
2682,-0.83,-0.255,0
2683,-0.9,-0.27,0
2684,-0.945,-0.27,0
2685,-0.99,-0.305,0
2686,-1.02,-0.345,0
2687,-1.045,-0.41,0
2688,-1.065,-0.46,0
2689,-1.085,-0.5,0
2690,-1.085,-0.52,0
2691,-1.07,-0.53,0
2692,-1.075,-0.57,0
2693,-1.075,-0.61,0
2694,-1.08,-0.66,0
2695,-1.085,-0.685,0
2696,-1.065,-0.705,0
2697,-1.045,-0.735,0
2698,-1.01,-0.78,0
2699,-0.985,-0.8,0
2700,-0.94,-0.83,0
2701,-0.9,-0.845,0
2702,-0.815,-0.845,0
2703,-0.77,-0.82,0
2704,-0.72,-0.79,0
2705,-0.68,-0.75,0
2706,-0.635,-0.72,0
2707,-0.595,-0.67,0
2708,-0.535,-0.6,0
2709,-0.5,-0.545,0
2710,-0.465,-0.485,0
2711,-0.455,-0.445,0
2712,-0.44,-0.41,0
2713,-0.44,-0.345,0
2714,-0.415,-0.3,0
2715,-0.41,-0.255,0
2716,-0.395,-0.235,0
2717,-0.395,-0.22,0
2718,-0.385,-0.205,0
2719,-0.375,-0.185,0
2720,-0.365,-0.16,0
2721,-0.34,-0.14,0
2722,-0.34,-0.12,0
2723,-0.35,-0.12,0
2724,-0.36,-0.115,0
2725,-0.36,-0.085,0
2726,-0.35,-0.055,0
2727,-0.33,-0.04,0
2728,-0.325,-0.005,0
2729,-0.32,0.01,0
2730,-0.325,0.025,0
2731,-0.31,0.04,0
2732,-0.295,0.075,0
2733,-0.28,0.105,0
2734,-0.275,0.135,0
2735,-0.285,0.13,0
2736,-0.265,0.12,0
2737,-0.265,0.135,0
2738,-0.255,0.155,0
2739,-0.24,0.165,0
2740,-0.23,0.17,0
2741,-0.25,0.165,0
2742,-0.25,0.155,0
2743,-0.245,0.16,0
2744,-0.24,0.17,0
2745,-0.23,0.17,0
2746,-0.22,0.18,0
2747,-0.22,0.165,0
2748,-0.22,0.155,0
2749,-0.225,0.16,0
2750,-0.205,0.17,0
2751,-0.185,0.175,0
2752,-0.175,0.18,0
2753,-0.17,0.16,0
2754,-0.18,0.16,0
2755,-0.18,0.165,0
2756,-0.17,0.17,0
2757,-0.145,0.185,0
2758,-0.15,0.185,0
2759,-0.145,0.2,0
2760,-0.155,0.195,0
2761,-0.16,0.2,0
2762,-0.125,0.205,0
2763,-0.11,0.21,0
2764,-0.095,0.21,0
2765,-0.085,0.205,0
2766,-0.08,0.19,0
2767,-0.08,0.21,0
2768,-0.07,0.235,0
2769,-0.07,0.255,0
2770,-0.07,0.255,0
2771,-0.065,0.25,0
2772,-0.09,0.24,0
2773,-0.1,0.245,0
2774,-0.085,0.255,0
2775,-0.095,0.27,0
2776,-0.08,0.26,0
2777,-0.09,0.26,0
2778,-0.1,0.255,0
2779,-0.11,0.26,0
2780,-0.1,0.275,0
2781,-0.095,0.295,0
2782,-0.095,0.29,0
2783,-0.085,0.285,0
2784,-0.095,0.29,0
2785,-0.095,0.29,0
2786,-0.085,0.31,0
2787,-0.075,0.31,0
2788,-0.07,0.32,0
2789,-0.08,0.31,0
2790,-0.07,0.315,0
2791,-0.08,0.33,0
2792,-0.06,0.345,0
2793,-0.045,0.35,0
2794,-0.035,0.35,0
2795,-0.05,0.345,0
2796,-0.06,0.345,0
2797,-0.055,0.345,0
2798,-0.05,0.36,0
2799,-0.045,0.36,0
2800,-0.045,0.35,0
2801,-0.055,0.35,0
2802,-0.065,0.34,0
2803,-0.075,0.345,0
2804,-0.06,0.33,0
2805,-0.065,0.355,0
2806,-0.065,0.335,0
2807,-0.08,0.325,0
2808,-0.09,0.325,0
2809,-0.12,0.315,0
2810,-0.105,0.315,0
2811,-0.1,0.325,0
2812,-0.115,0.31,0
2813,-0.125,0.295,0
2814,-0.14,0.28,0
2815,-0.165,0.265,0
2816,-0.16,0.255,0
2817,-0.145,0.265,0
2818,-0.155,0.24,0
2819,-0.16,0.235,0
2820,-0.185,0.215,0
2821,-0.205,0.21,0
2822,-0.2,0.2,0
2823,-0.205,0.205,0
2824,-0.21,0.19,0
2825,-0.205,0.18,0
2826,-0.23,0.16,0
2827,-0.235,0.155,0
2828,-0.24,0.15,0
2829,-0.225,0.145,0
2830,-0.23,0.145,0
2831,-0.25,0.13,0
2832,-0.255,0.115,0
2833,-0.265,0.115,0
2834,-0.26,0.11,0
2835,-0.255,0.11,0
2836,-0.255,0.105,0
2837,-0.265,0.09,0
2838,-0.275,0.085,0
2839,-0.275,0.075,0
2840,-0.28,0.075,0
2841,-0.27,0.09,0
2842,-0.27,0.075,0
2843,-0.275,0.07,0
2844,-0.285,0.06,0
2845,-0.295,0.055,0
2846,-0.285,0.07,0
2847,-0.285,0.075,0
2848,-0.295,0.07,0
2849,-0.295,0.06,0
2850,-0.295,0.055,0
2851,-0.305,0.06,0
2852,-0.295,0.06,0
2853,-0.285,0.06,0
2854,-0.295,0.055,0
2855,-0.3,0.04,0
2856,-0.31,0.035,0
2857,-0.32,0.05,0
2858,-0.305,0.06,0
2859,-0.315,0.055,0
2860,-0.31,0.06,0
2861,-0.32,0.035,0
2862,-0.335,0.025,0
2863,-0.335,0.03,0
2864,-0.33,0.05,0
2865,-0.315,0.07,0
2866,-0.33,0.05,0
2867,-0.32,0.05,0
2868,-0.325,0.03,0
2869,-0.35,0.03,0
2870,-0.325,0.045,0
2871,-0.325,0.045,0
2872,-0.32,0.04,0
2873,-0.34,0.04,0
2874,-0.345,0.03,0
2875,-0.355,0.03,0
2876,-0.345,0.04,0
2877,-0.34,0.055,0
2878,-0.345,0.035,0
2879,-0.355,0.035,0
2880,-0.36,0.025,0
2881,-0.365,0.02,0
2882,-0.36,0.035,0
2883,-0.355,0.03,0
2884,-0.355,0.035,0
2885,-0.345,0.02,0
2886,-0.36,0.005,0
2887,-0.375,0.015,0
2888,-0.365,0.02,0
2889,-0.36,0.02,0
2890,-0.355,0.03,0
2891,-0.355,0.005,0
2892,-0.37,0.01,0
2893,-0.385,0.0,0
2894,-0.365,0.01,0
2895,-0.365,0.015,0
2896,-0.36,0.015,0
2897,-0.385,-0.005,0
2898,-0.385,-0.005,0
2899,-0.385,-0.02,0
2900,-0.38,0.0,0
2901,-0.37,0.005,0
2902,-0.365,0.01,0
2903,-0.365,-0.005,0
2904,-0.38,-0.015,0
2905,-0.385,-0.01,0
2906,-0.385,-0.015,0
2907,-0.38,0.005,0
2908,-0.385,-0.005,0
2909,-0.385,-0.015,0
2910,-0.385,-0.035,0
2911,-0.39,-0.015,0
2912,-0.385,-0.005,0
2913,-0.37,-0.015,0
2914,-0.375,-0.015,0
2915,-0.37,-0.035,0
2916,-0.38,-0.035,0
2917,-0.39,-0.015,0
2918,-0.38,-0.02,0
2919,-0.365,-0.005,0
2920,-0.36,-0.005,0
2921,-0.355,-0.01,0
2922,-0.375,-0.03,0
2923,-0.375,-0.015,0
2924,-0.37,-0.005,0
2925,-0.37,0.005,0
2926,-0.355,-0.005,0
2927,-0.355,-0.02,0
2928,-0.36,-0.025,0
2929,-0.355,-0.015,0
2930,-0.36,-0.015,0
2931,-0.34,-0.005,0
2932,-0.33,-0.01,0
2933,-0.325,-0.01,0
2934,-0.32,-0.015,0
2935,-0.295,-0.01,0
2936,-0.25,0.02,0
2937,-0.155,0.055,0
2938,0.11,0.13,0
2939,0.55,0.295,0
2940,0.765,0.62,0
2941,0.485,0.81,0
2942,0.115,0.655,1
2943,-0.06,0.385,0
2944,-0.065,0.24,0
2945,-0.06,0.195,0
2946,-0.07,0.18,0
2947,-0.1,0.145,0
2948,-0.125,0.13,0
2949,-0.125,0.12,0
2950,-0.13,0.115,0
2951,-0.135,0.09,0
2952,-0.145,0.06,0
2953,-0.145,0.055,0
2954,-0.16,0.02,0
2955,-0.165,0.0,0
2956,-0.175,-0.045,0
2957,-0.205,-0.07,0
2958,-0.22,-0.095,0
2959,-0.24,-0.1,0
2960,-0.26,-0.105,0
2961,-0.28,-0.11,0
2962,-0.33,-0.125,0
2963,-0.36,-0.15,0
2964,-0.4,-0.185,0
2965,-0.445,-0.205,0
2966,-0.475,-0.205,0
2967,-0.525,-0.225,0
2968,-0.59,-0.235,0
2969,-0.68,-0.26,0
2970,-0.745,-0.27,0
2971,-0.805,-0.295,0
2972,-0.85,-0.28,0
2973,-0.905,-0.285,0
2974,-0.95,-0.305,0
2975,-1.005,-0.335,0
2976,-1.06,-0.4,0
2977,-1.055,-0.435,0
2978,-1.07,-0.485,0
2979,-1.07,-0.52,0
2980,-1.07,-0.55,0
2981,-1.075,-0.59,0
2982,-1.08,-0.62,0
2983,-1.08,-0.655,0
2984,-1.07,-0.68,0
2985,-1.05,-0.72,0
2986,-1.04,-0.75,0
2987,-1.015,-0.795,0
2988,-0.985,-0.82,0
2989,-0.945,-0.845,0
2990,-0.895,-0.85,0
2991,-0.83,-0.865,0
2992,-0.77,-0.85,0
2993,-0.73,-0.835,0
2994,-0.685,-0.79,0
2995,-0.645,-0.755,0
2996,-0.59,-0.7,0
2997,-0.535,-0.64,0
2998,-0.505,-0.585,0
2999,-0.48,-0.53,0
3000,-0.46,-0.495,0
3001,-0.435,-0.445,0
3002,-0.415,-0.365,0
3003,-0.41,-0.325,0
3004,-0.395,-0.3,0
3005,-0.395,-0.28,0
3006,-0.39,-0.25,0
3007,-0.39,-0.23,0
3008,-0.365,-0.19,0
3009,-0.345,-0.16,0
3010,-0.335,-0.165,0
3011,-0.34,-0.155,0
3012,-0.35,-0.14,0
3013,-0.36,-0.12,0
3014,-0.345,-0.095,0
3015,-0.33,-0.065,0
3016,-0.32,-0.04,0
3017,-0.33,-0.045,0
3018,-0.315,-0.02,0
3019,-0.305,0.005,0
3020,-0.275,0.05,0
3021,-0.27,0.065,0
3022,-0.26,0.085,0
3023,-0.255,0.09,0
3024,-0.255,0.08,0
3025,-0.255,0.09,0
3026,-0.24,0.095,0
3027,-0.215,0.115,0
3028,-0.21,0.11,0
3029,-0.21,0.115,0
3030,-0.22,0.09,0
3031,-0.225,0.11,0
3032,-0.21,0.12,0
3033,-0.195,0.125,0
3034,-0.19,0.125,0
3035,-0.185,0.12,0
3036,-0.185,0.11,0
3037,-0.2,0.125,0
3038,-0.18,0.145,0
3039,-0.175,0.16,0
3040,-0.165,0.15,0
3041,-0.165,0.145,0
3042,-0.18,0.14,0
3043,-0.175,0.145,0
3044,-0.16,0.155,0
3045,-0.15,0.18,0
3046,-0.155,0.17,0
3047,-0.165,0.175,0
3048,-0.15,0.17,0
3049,-0.155,0.175,0
3050,-0.13,0.19,0
3051,-0.125,0.2,0
3052,-0.115,0.205,0
3053,-0.115,0.195,0
3054,-0.12,0.205,0
3055,-0.135,0.2,0
3056,-0.11,0.225,0
3057,-0.1,0.23,0
3058,-0.095,0.23,0
3059,-0.11,0.23,0
3060,-0.105,0.23,0
3061,-0.105,0.24,0
3062,-0.09,0.255,0
3063,-0.095,0.275,0
3064,-0.085,0.275,0
3065,-0.085,0.27,0
3066,-0.08,0.27,0
3067,-0.08,0.29,0
3068,-0.055,0.295,0
3069,-0.045,0.325,0
3070,-0.04,0.32,0
3071,-0.06,0.325,0
3072,-0.055,0.32,0
3073,-0.05,0.335,0
3074,-0.04,0.355,0
3075,-0.03,0.375,0
3076,-0.02,0.375,0
3077,-0.02,0.375,0
3078,-0.03,0.375,0
3079,-0.04,0.39,0
3080,-0.02,0.39,0
3081,-0.01,0.395,0
3082,0.0,0.395,0
3083,-0.005,0.385,0
3084,0.01,0.375,0
3085,0.005,0.37,0
3086,0.01,0.375,0
3087,0.005,0.37,0
3088,0.01,0.375,0
3089,0.0,0.36,0
3090,-0.005,0.345,0
3091,-0.015,0.325,0
3092,0.005,0.34,0
3093,0.0,0.34,0
3094,0.005,0.335,0
3095,-0.005,0.325,0
3096,-0.02,0.3,0
3097,-0.03,0.295,0
3098,-0.02,0.3,0
3099,-0.015,0.29,0
3100,-0.015,0.29,0
3101,-0.025,0.27,0
3102,-0.05,0.26,0
3103,-0.075,0.23,0
3104,-0.08,0.235,0
3105,-0.11,0.235,0
3106,-0.12,0.215,0
3107,-0.125,0.195,0
3108,-0.15,0.16,0
3109,-0.17,0.17,0
3110,-0.16,0.165,0
3111,-0.17,0.16,0
3112,-0.18,0.15,0
3113,-0.19,0.115,0
3114,-0.205,0.105,0
3115,-0.205,0.1,0
3116,-0.21,0.11,0
3117,-0.205,0.115,0
3118,-0.205,0.1,0
3119,-0.225,0.09,0
3120,-0.225,0.07,0
3121,-0.23,0.065,0
3122,-0.245,0.085,0
3123,-0.24,0.07,0
3124,-0.24,0.06,0
3125,-0.23,0.065,0
3126,-0.245,0.055,0
3127,-0.24,0.05,0
3128,-0.25,0.05,0
3129,-0.235,0.055,0
3130,-0.245,0.055,0
3131,-0.25,0.04,0
3132,-0.26,0.035,0
3133,-0.26,0.035,0
3134,-0.26,0.045,0
3135,-0.255,0.055,0
3136,-0.26,0.045,0
3137,-0.255,0.03,0
3138,-0.27,0.025,0
3139,-0.26,0.025,0
3140,-0.27,0.03,0
3141,-0.255,0.035,0
3142,-0.275,0.05,0
3143,-0.28,0.025,0
3144,-0.285,0.015,0
3145,-0.28,0.02,0
3146,-0.28,0.025,0
3147,-0.27,0.04,0
3148,-0.275,0.04,0
3149,-0.28,0.03,0
3150,-0.285,0.01,0
3151,-0.295,0.02,0
3152,-0.285,0.025,0
3153,-0.28,0.03,0
3154,-0.28,0.035,0
3155,-0.285,0.02,0
3156,-0.295,0.01,0
3157,-0.3,0.015,0
3158,-0.3,0.01,0
3159,-0.3,0.025,0
3160,-0.3,0.025,0
3161,-0.305,0.005,0
3162,-0.33,0.0,0
3163,-0.325,0.0,0
3164,-0.315,0.005,0
3165,-0.3,0.01,0
3166,-0.3,0.01,0
3167,-0.31,0.0,0
3168,-0.32,-0.01,0
3169,-0.325,-0.01,0
3170,-0.32,0.0,0
3171,-0.32,0.005,0
3172,-0.32,0.005,0
3173,-0.32,-0.015,0
3174,-0.33,-0.01,0
3175,-0.35,-0.005,0
3176,-0.325,-0.005,0
3177,-0.32,-0.005,0
3178,-0.335,-0.01,0
3179,-0.33,-0.02,0
3180,-0.345,-0.03,0
3181,-0.355,-0.03,0
3182,-0.355,-0.025,0
3183,-0.345,-0.02,0
3184,-0.345,-0.015,0
3185,-0.345,-0.03,0
3186,-0.35,-0.035,0
3187,-0.35,-0.04,0
3188,-0.34,-0.02,0
3189,-0.325,-0.025,0
3190,-0.325,-0.02,0
3191,-0.325,-0.035,0
3192,-0.35,-0.04,0
3193,-0.36,-0.04,0
3194,-0.36,-0.03,0
3195,-0.345,-0.03,0
3196,-0.345,-0.035,0
3197,-0.34,-0.035,0
3198,-0.355,-0.045,0
3199,-0.36,-0.05,0
3200,-0.36,-0.035,0
3201,-0.345,-0.03,0
3202,-0.34,-0.035,0
3203,-0.35,-0.045,0
3204,-0.345,-0.055,0
3205,-0.355,-0.045,0
3206,-0.35,-0.045,0
3207,-0.35,-0.03,0
3208,-0.335,-0.04,0
3209,-0.35,-0.055,0
3210,-0.355,-0.055,0
3211,-0.365,-0.05,0
3212,-0.35,-0.05,0
3213,-0.34,-0.025,0
3214,-0.345,-0.035,0
3215,-0.35,-0.05,0
3216,-0.345,-0.065,0
3217,-0.35,-0.055,0
3218,-0.34,-0.055,0
3219,-0.335,-0.04,0
3220,-0.335,-0.04,0
3221,-0.335,-0.05,0
3222,-0.33,-0.065,0
3223,-0.34,-0.055,0
3224,-0.315,-0.035,0
3225,-0.265,-0.02,0
3226,-0.235,-0.03,0
3227,-0.125,-0.01,0
3228,0.14,0.025,0
3229,0.595,0.18,0
3230,0.875,0.515,0
3231,0.655,0.775,0
3232,0.225,0.665,1
3233,-0.02,0.375,0
3234,-0.065,0.185,0
3235,-0.025,0.16,0
3236,-0.03,0.16,0
3237,-0.05,0.13,0
3238,-0.085,0.105,0
3239,-0.105,0.09,0
3240,-0.12,0.065,0
3241,-0.135,0.06,0
3242,-0.125,0.04,0
3243,-0.13,0.025,0
3244,-0.14,-0.02,0
3245,-0.155,-0.06,0
3246,-0.195,-0.11,0
3247,-0.205,-0.12,0
3248,-0.195,-0.135,0
3249,-0.21,-0.14,0
3250,-0.22,-0.16,0
3251,-0.245,-0.185,0
3252,-0.295,-0.205,0
3253,-0.335,-0.225,0
3254,-0.365,-0.24,0
3255,-0.4,-0.255,0
3256,-0.45,-0.29,0
3257,-0.505,-0.315,0
3258,-0.595,-0.345,0
3259,-0.695,-0.345,0
3260,-0.77,-0.35,0
3261,-0.825,-0.355,0
3262,-0.845,-0.36,0
3263,-0.915,-0.375,0
3264,-0.965,-0.4,0
3265,-1.025,-0.425,0
3266,-1.06,-0.44,0
3267,-1.065,-0.48,0
3268,-1.07,-0.535,0
3269,-1.08,-0.6,0
3270,-1.095,-0.63,0
3271,-1.095,-0.65,0
3272,-1.08,-0.65,0
3273,-1.075,-0.68,0
3274,-1.07,-0.715,0
3275,-1.06,-0.77,0
3276,-1.045,-0.805,0
3277,-1.035,-0.82,0
3278,-1.0,-0.83,0
3279,-0.965,-0.86,0
3280,-0.92,-0.88,0
3281,-0.88,-0.91,0
3282,-0.82,-0.915,0
3283,-0.77,-0.885,0
3284,-0.7,-0.84,0
3285,-0.625,-0.79,0
3286,-0.575,-0.735,0
3287,-0.525,-0.705,0
3288,-0.49,-0.66,0
3289,-0.465,-0.595,0
3290,-0.43,-0.51,0
3291,-0.4,-0.46,0
3292,-0.38,-0.4,0
3293,-0.39,-0.37,0
3294,-0.39,-0.34,0
3295,-0.395,-0.295,0
3296,-0.38,-0.25,0
3297,-0.355,-0.225,0
3298,-0.335,-0.2,0
3299,-0.32,-0.185,0
3300,-0.32,-0.175,0
3301,-0.35,-0.17,0
3302,-0.34,-0.135,0
3303,-0.33,-0.12,0
3304,-0.335,-0.09,0
3305,-0.33,-0.08,0
3306,-0.325,-0.065,0
3307,-0.305,-0.045,0
3308,-0.29,0.0,0
3309,-0.27,0.02,0
3310,-0.245,0.03,0
3311,-0.24,0.035,0
3312,-0.235,0.045,0
3313,-0.23,0.06,0
3314,-0.225,0.075,0
3315,-0.21,0.09,0
3316,-0.21,0.085,0
3317,-0.185,0.075,0
3318,-0.195,0.07,0
3319,-0.19,0.075,0
3320,-0.175,0.085,0
3321,-0.175,0.095,0
3322,-0.17,0.095,0
3323,-0.185,0.095,0
3324,-0.185,0.09,0
3325,-0.195,0.085,0
3326,-0.175,0.105,0
3327,-0.145,0.115,0
3328,-0.12,0.125,0
3329,-0.12,0.115,0
3330,-0.13,0.105,0
3331,-0.14,0.12,0
3332,-0.14,0.135,0
3333,-0.12,0.145,0
3334,-0.12,0.145,0
3335,-0.105,0.14,0
3336,-0.11,0.135,0
3337,-0.11,0.155,0
3338,-0.105,0.165,0
3339,-0.095,0.18,0
3340,-0.09,0.19,0
3341,-0.1,0.18,0
3342,-0.105,0.17,0
3343,-0.1,0.185,0
3344,-0.08,0.2,0
3345,-0.065,0.22,0
3346,-0.04,0.22,0
3347,-0.045,0.21,0
3348,-0.05,0.21,0
3349,-0.04,0.22,0
3350,-0.03,0.23,0
3351,-0.025,0.25,0
3352,-0.025,0.25,0
3353,-0.025,0.25,0
3354,-0.055,0.245,0
3355,-0.05,0.265,0
3356,-0.055,0.28,0
3357,-0.025,0.29,0
3358,-0.01,0.295,0
3359,-0.005,0.295,0
3360,-0.01,0.3,0
3361,-0.005,0.3,0
3362,-0.005,0.305,0
3363,0.005,0.32,0
3364,0.01,0.32,0
3365,0.005,0.32,0
3366,0.015,0.305,0
3367,0.01,0.325,0
3368,0.025,0.335,0
3369,0.025,0.34,0
3370,0.005,0.335,0
3371,0.005,0.325,0
3372,-0.01,0.315,0
3373,-0.005,0.325,0
3374,0.005,0.33,0
3375,0.01,0.325,0
3376,0.02,0.325,0
3377,0.02,0.315,0
3378,0.0,0.3,0
3379,-0.015,0.305,0
3380,-0.02,0.3,0
3381,-0.025,0.295,0
3382,-0.03,0.29,0
3383,-0.055,0.275,0
3384,-0.075,0.255,0
3385,-0.085,0.255,0
3386,-0.085,0.26,0
3387,-0.095,0.245,0
3388,-0.105,0.22,0
3389,-0.125,0.2,0
3390,-0.145,0.185,0
3391,-0.16,0.175,0
3392,-0.155,0.185,0
3393,-0.155,0.185,0
3394,-0.16,0.165,0
3395,-0.16,0.145,0
3396,-0.165,0.12,0
3397,-0.175,0.12,0
3398,-0.18,0.12,0
3399,-0.19,0.12,0
3400,-0.195,0.105,0
3401,-0.215,0.095,0
3402,-0.23,0.085,0
3403,-0.24,0.08,0
3404,-0.23,0.09,0
3405,-0.215,0.085,0
3406,-0.23,0.075,0
3407,-0.235,0.07,0
3408,-0.26,0.065,0
3409,-0.265,0.065,0
3410,-0.255,0.07,0
3411,-0.25,0.075,0
3412,-0.25,0.07,0
3413,-0.27,0.055,0
3414,-0.28,0.04,0
3415,-0.275,0.045,0
3416,-0.26,0.045,0
3417,-0.245,0.06,0
3418,-0.26,0.04,0
3419,-0.285,0.03,0
3420,-0.275,0.02,0
3421,-0.275,0.02,0
3422,-0.275,0.03,0
3423,-0.27,0.025,0
3424,-0.265,0.025,0
3425,-0.265,0.02,0
3426,-0.255,0.005,0
3427,-0.245,0.01,0
3428,-0.245,0.015,0
3429,-0.235,0.01,0
3430,-0.245,0.015,0
3431,-0.245,0.005,0
3432,-0.25,0.0,0
3433,-0.25,0.005,0
3434,-0.23,0.005,0
3435,-0.215,0.01,0
3436,-0.215,0.01,0
3437,-0.215,0.005,0
3438,-0.21,0.0,0
3439,-0.205,0.015,0
3440,-0.2,0.02,0
3441,-0.195,0.03,0
3442,-0.205,0.025,0
3443,-0.23,0.0,0
3444,-0.235,-0.015,0
3445,-0.255,-0.01,0
3446,-0.265,0.0,0
3447,-0.26,-0.015,0
3448,-0.26,-0.025,0
3449,-0.28,-0.025,0
3450,-0.305,-0.035,0
3451,-0.32,-0.04,0
3452,-0.31,-0.04,0
3453,-0.295,-0.025,0
3454,-0.295,-0.035,0
3455,-0.3,-0.04,0
3456,-0.3,-0.045,0
3457,-0.31,-0.045,0
3458,-0.315,-0.035,0
3459,-0.315,-0.03,0
3460,-0.32,-0.045,0
3461,-0.315,-0.05,0
3462,-0.32,-0.075,0
3463,-0.31,-0.055,0
3464,-0.315,-0.055,0
3465,-0.305,-0.045,0
3466,-0.3,-0.05,0
3467,-0.31,-0.06,0
3468,-0.32,-0.065,0
3469,-0.32,-0.055,0
3470,-0.31,-0.055,0
3471,-0.31,-0.06,0
3472,-0.3,-0.05,0
3473,-0.325,-0.06,0
3474,-0.325,-0.075,0
3475,-0.33,-0.065,0
3476,-0.32,-0.05,0
3477,-0.32,-0.065,0
3478,-0.325,-0.065,0
3479,-0.325,-0.06,0
3480,-0.32,-0.09,0
3481,-0.335,-0.075,0
3482,-0.325,-0.07,0
3483,-0.32,-0.07,0
3484,-0.315,-0.075,0
3485,-0.315,-0.07,0
3486,-0.335,-0.1,0
3487,-0.325,-0.085,0
3488,-0.315,-0.09,0
3489,-0.3,-0.065,0
3490,-0.3,-0.065,0
3491,-0.305,-0.075,0
3492,-0.305,-0.08,0
3493,-0.31,-0.075,0
3494,-0.3,-0.065,0
3495,-0.29,-0.06,0
3496,-0.295,-0.06,0
3497,-0.29,-0.065,0
3498,-0.29,-0.08,0
3499,-0.29,-0.08,0
3500,-0.28,-0.065,0
3501,-0.27,-0.065,0
3502,-0.275,-0.05,0
3503,-0.275,-0.065,0
3504,-0.26,-0.06,0
3505,-0.26,-0.045,0
3506,-0.25,-0.04,0
3507,-0.24,-0.02,0
3508,-0.205,-0.005,0
3509,-0.15,-0.005,0
3510,-0.04,0.0,0
3511,0.16,0.04,0
3512,0.63,0.125,0
3513,1.095,0.42,0
3514,1.085,0.785,0
3515,0.765,0.775,0
3516,0.565,0.535,0
3517,0.605,0.385,0
3518,0.795,0.355,0
3519,0.965,0.37,0
3520,1.12,0.365,0
3521,1.265,0.34,0
3522,1.41,0.31,1
3523,1.5,0.295,0
3524,1.495,0.24,0
3525,1.375,0.14,0
3526,1.16,0.0,0
3527,0.92,-0.155,0
3528,0.68,-0.295,0
3529,0.475,-0.36,0
3530,0.305,-0.385,0
3531,0.11,-0.405,0
3532,-0.085,-0.41,0
3533,-0.28,-0.4,0
3534,-0.4,-0.36,0
3535,-0.465,-0.32,0
3536,-0.47,-0.27,0
3537,-0.455,-0.24,0
3538,-0.46,-0.195,0
3539,-0.46,-0.165,0
3540,-0.45,-0.145,0
3541,-0.455,-0.125,0
3542,-0.435,-0.095,0
3543,-0.43,-0.085,0
3544,-0.415,-0.085,0
3545,-0.415,-0.09,0
3546,-0.425,-0.1,0
3547,-0.425,-0.1,0
3548,-0.425,-0.09,0
3549,-0.415,-0.075,0
3550,-0.405,-0.095,0
3551,-0.415,-0.09,0
3552,-0.425,-0.11,0
3553,-0.435,-0.1,0
3554,-0.43,-0.095,0
3555,-0.43,-0.09,0
3556,-0.425,-0.09,0
3557,-0.44,-0.095,0
3558,-0.435,-0.11,0
3559,-0.45,-0.1,0
3560,-0.435,-0.095,0
3561,-0.435,-0.09,0
3562,-0.445,-0.095,0
3563,-0.445,-0.11,0
3564,-0.45,-0.135,0
3565,-0.46,-0.115,0
3566,-0.46,-0.115,0
3567,-0.46,-0.11,0
3568,-0.47,-0.115,0
3569,-0.485,-0.12,0
3570,-0.495,-0.145,0
3571,-0.5,-0.135,0
3572,-0.49,-0.12,0
3573,-0.49,-0.13,0
3574,-0.49,-0.12,0
3575,-0.505,-0.14,0
3576,-0.515,-0.14,0
3577,-0.52,-0.155,0
3578,-0.51,-0.14,0
3579,-0.51,-0.13,0
3580,-0.515,-0.145,0
3581,-0.52,-0.155,0
3582,-0.54,-0.15,0
3583,-0.535,-0.16,0
3584,-0.55,-0.155,0
3585,-0.535,-0.145,0
3586,-0.54,-0.15,0
3587,-0.55,-0.17,0
3588,-0.555,-0.17,0
3589,-0.56,-0.18,0
3590,-0.565,-0.16,0
3591,-0.56,-0.155,0
3592,-0.57,-0.16,0
3593,-0.57,-0.18,0
3594,-0.585,-0.185,0
3595,-0.585,-0.185,0
3596,-0.585,-0.18,0
3597,-0.59,-0.175,0
3598,-0.585,-0.185,0
3599,-0.595,-0.19,0
3600,-0.6,-0.19,0
3601,-0.61,-0.195,0
3602,-0.6,-0.185,0
3603,-0.595,-0.17,0
3604,-0.595,-0.175,0
3605,-0.605,-0.18,0
3606,-0.605,-0.19,0
3607,-0.61,-0.185,0
3608,-0.595,-0.185,0
3609,-0.585,-0.165,0
3610,-0.575,-0.16,0
3611,-0.59,-0.17,0
3612,-0.59,-0.17,0
3613,-0.595,-0.175,0
3614,-0.58,-0.155,0
3615,-0.57,-0.14,0
3616,-0.565,-0.15,0
3617,-0.56,-0.16,0
3618,-0.56,-0.16,0
3619,-0.55,-0.155,0
3620,-0.54,-0.145,0
3621,-0.52,-0.135,0
3622,-0.505,-0.13,0
3623,-0.505,-0.13,0
3624,-0.505,-0.13,0
3625,-0.495,-0.125,0
3626,-0.47,-0.11,0
3627,-0.445,-0.095,0
3628,-0.435,-0.085,0
3629,-0.43,-0.1,0
3630,-0.42,-0.08,0
3631,-0.42,-0.075,0
3632,-0.39,-0.065,0
3633,-0.36,-0.055,0
3634,-0.355,-0.05,0
3635,-0.34,-0.04,0
3636,-0.345,-0.045,0
3637,-0.34,-0.04,0
3638,-0.3,-0.02,0
3639,-0.285,-0.015,0
3640,-0.28,-0.015,0
3641,-0.275,-0.015,0
3642,-0.285,-0.02,0
3643,-0.275,-0.015,0
3644,-0.275,-0.005,0
3645,-0.255,0.01,0
3646,-0.265,0.01,0
3647,-0.26,0.0,0
3648,-0.26,-0.01,0
3649,-0.25,-0.005,0
3650,-0.245,0.005,0
3651,-0.245,0.01,0
3652,-0.23,0.015,0
3653,-0.235,-0.005,0
3654,-0.245,-0.005,0
3655,-0.245,0.005,0
3656,-0.245,-0.005,0
3657,-0.24,0.015,0
3658,-0.225,0.0,0
3659,-0.235,-0.01,0
3660,-0.235,-0.015,0
3661,-0.24,0.0,0
3662,-0.235,0.0,0
3663,-0.23,0.0,0
3664,-0.225,-0.005,0
3665,-0.24,-0.02,0
3666,-0.25,-0.03,0
3667,-0.245,-0.02,0
3668,-0.24,-0.005,0
3669,-0.225,-0.01,0
3670,-0.24,-0.01,0
3671,-0.235,-0.02,0
3672,-0.265,-0.03,0
3673,-0.265,-0.03,0
3674,-0.255,-0.015,0
3675,-0.245,-0.005,0
3676,-0.255,-0.01,0
3677,-0.265,-0.025,0
3678,-0.26,-0.035,0
3679,-0.27,-0.03,0
3680,-0.255,-0.04,0
3681,-0.245,-0.02,0
3682,-0.255,-0.025,0
3683,-0.265,-0.03,0
3684,-0.26,-0.05,0
3685,-0.275,-0.03,0
3686,-0.265,-0.015,0
3687,-0.255,-0.025,0
3688,-0.26,-0.015,0
3689,-0.27,-0.035,0
3690,-0.275,-0.03,0
3691,-0.27,-0.045,0
3692,-0.265,-0.035,0
3693,-0.24,-0.015,0
3694,-0.25,-0.01,0
3695,-0.255,-0.02,0
3696,-0.255,-0.04,0
3697,-0.265,-0.04,0
3698,-0.25,-0.02,0
3699,-0.245,-0.01,0
3700,-0.245,-0.015,0
3701,-0.255,-0.02,0
3702,-0.265,-0.04,0
3703,-0.265,-0.02,0
3704,-0.235,-0.015,0
3705,-0.225,-0.015,0
3706,-0.235,-0.01,0
3707,-0.24,-0.015,0
3708,-0.24,-0.02,0
3709,-0.245,-0.02,0
3710,-0.245,-0.015,0
3711,-0.22,-0.005,0
3712,-0.215,-0.01,0
3713,-0.225,-0.02,0
3714,-0.235,-0.035,0
3715,-0.255,-0.02,0
3716,-0.225,-0.02,0
3717,-0.225,-0.005,0
3718,-0.225,-0.01,0
3719,-0.22,-0.02,0
3720,-0.225,-0.03,0
3721,-0.235,-0.03,0
3722,-0.23,-0.015,0
3723,-0.22,-0.02,0
3724,-0.215,-0.015,0
3725,-0.225,-0.025,0
3726,-0.24,-0.025,0
3727,-0.235,-0.02,0
3728,-0.235,-0.01,0
3729,-0.225,-0.01,0
3730,-0.215,0.0,0
3731,-0.225,-0.01,0
3732,-0.23,-0.02,0
3733,-0.235,-0.015,0
3734,-0.23,-0.005,0
3735,-0.225,0.01,0
3736,-0.215,-0.005,0
3737,-0.235,0.0,0
3738,-0.235,-0.015,0
3739,-0.24,-0.005,0
3740,-0.245,0.015,0
3741,-0.23,0.02,0
3742,-0.22,0.02,0
3743,-0.235,0.015,0
3744,-0.23,-0.01,0
3745,-0.24,0.01,0
3746,-0.23,0.03,0
3747,-0.23,0.015,0
3748,-0.23,0.02,0
3749,-0.25,0.005,0
3750,-0.23,0.0,0
3751,-0.235,-0.015,0
3752,-0.225,-0.015,0
3753,-0.215,0.0,0
3754,-0.2,-0.005,0
3755,-0.205,-0.025,0
3756,-0.21,-0.04,0
3757,-0.215,-0.03,0
3758,-0.2,-0.02,0
3759,-0.18,-0.01,0
3760,-0.18,-0.02,0
3761,-0.19,-0.03,0
3762,-0.195,-0.035,0
3763,-0.2,-0.035,0
3764,-0.17,-0.025,0
3765,-0.155,-0.015,0
3766,-0.145,-0.005,0
3767,-0.15,-0.03,0
3768,-0.145,-0.03,0
3769,-0.135,-0.015,0
3770,-0.14,0.01,0
3771,-0.13,-0.01,0
3772,-0.14,-0.005,0
3773,-0.165,-0.01,0
3774,-0.185,-0.025,0
3775,-0.195,-0.035,0
3776,-0.19,-0.03,0
3777,-0.18,-0.015,0
3778,-0.185,-0.015,0
3779,-0.2,-0.025,0
3780,-0.215,-0.045,0
3781,-0.205,-0.04,0
3782,-0.2,-0.03,0
3783,-0.195,-0.03,0
3784,-0.195,-0.03,0
3785,-0.2,-0.03,0
3786,-0.205,-0.045,0
3787,-0.21,-0.03,0
3788,-0.19,-0.03,0
3789,-0.155,-0.015,0
3790,-0.145,-0.015,0
3791,-0.1,-0.01,0
3792,-0.035,-0.015,0
3793,0.17,0.015,0
3794,0.625,0.1,0
3795,0.995,0.405,0
3796,0.84,0.695,1
3797,0.385,0.625,0
3798,0.1,0.34,0
3799,0.06,0.18,0
3800,0.1,0.155,0
3801,0.125,0.17,0
3802,0.09,0.14,0
3803,0.05,0.12,0
3804,0.035,0.075,0
3805,0.025,0.085,0
3806,0.04,0.08,0
3807,0.065,0.065,0
3808,0.065,0.05,0
3809,0.05,0.03,0
3810,0.04,-0.01,0
3811,0.03,-0.04,0
3812,0.03,-0.04,0
3813,0.04,-0.05,0
3814,0.035,-0.05,0
3815,0.03,-0.07,0
3816,-0.005,-0.095,0
3817,-0.025,-0.09,0
3818,-0.055,-0.08,0
3819,-0.085,-0.085,0
3820,-0.12,-0.105,0
3821,-0.18,-0.115,0
3822,-0.2,-0.145,0
3823,-0.235,-0.13,0
3824,-0.275,-0.135,0
3825,-0.285,-0.13,0
3826,-0.29,-0.15,0
3827,-0.31,-0.15,0
3828,-0.33,-0.165,0
3829,-0.36,-0.15,0
3830,-0.415,-0.155,0
3831,-0.445,-0.145,0
3832,-0.45,-0.165,0
3833,-0.43,-0.165,0
3834,-0.39,-0.175,0
3835,-0.335,-0.165,0
3836,-0.27,-0.145,0
3837,-0.22,-0.135,0
3838,-0.165,-0.12,0
3839,-0.16,-0.165,0
3840,-0.195,-0.22,0
3841,-0.255,-0.285,0
3842,-0.3,-0.345,0
3843,-0.335,-0.37,0
3844,-0.4,-0.395,0
3845,-0.44,-0.43,0
3846,-0.48,-0.43,0
3847,-0.515,-0.415,0
3848,-0.52,-0.385,0
3849,-0.495,-0.335,0
3850,-0.46,-0.275,0
3851,-0.42,-0.23,0
3852,-0.395,-0.195,0
3853,-0.375,-0.15,0
3854,-0.35,-0.1,0
3855,-0.34,-0.07,0
3856,-0.32,-0.065,0
3857,-0.31,-0.055,0
3858,-0.315,-0.055,0
3859,-0.305,-0.045,0
3860,-0.3,-0.02,0
3861,-0.29,-0.005,0
3862,-0.265,-0.025,0
3863,-0.255,-0.035,0
3864,-0.26,-0.04,0
3865,-0.26,-0.025,0
3866,-0.24,-0.02,0
3867,-0.24,-0.02,0
3868,-0.23,-0.025,0
3869,-0.245,-0.03,0
3870,-0.235,-0.03,0
3871,-0.235,-0.035,0
3872,-0.225,-0.02,0
3873,-0.22,-0.01,0
3874,-0.22,-0.015,0
3875,-0.22,-0.025,0
3876,-0.22,-0.035,0
3877,-0.23,-0.035,0
3878,-0.215,-0.015,0
3879,-0.21,-0.015,0
3880,-0.215,-0.02,0
3881,-0.21,-0.02,0
3882,-0.22,-0.04,0
3883,-0.225,-0.035,0
3884,-0.215,-0.015,0
3885,-0.215,-0.015,0
3886,-0.195,-0.01,0
3887,-0.195,-0.02,0
3888,-0.205,-0.035,0
3889,-0.21,-0.025,0
3890,-0.205,-0.02,0
3891,-0.195,-0.01,0
3892,-0.195,-0.015,0
3893,-0.19,-0.02,0
3894,-0.205,-0.03,0
3895,-0.2,-0.025,0
3896,-0.18,-0.015,0
3897,-0.175,-0.015,0
3898,-0.17,-0.005,0
3899,-0.18,-0.015,0
3900,-0.18,-0.02,0
3901,-0.195,-0.01,0
3902,-0.165,-0.005,0
3903,-0.16,0.005,0
3904,-0.155,0.0,0
3905,-0.16,-0.015,0
3906,-0.16,-0.02,0
3907,-0.155,-0.005,0
3908,-0.155,0.005,0
3909,-0.14,0.015,0
3910,-0.13,0.01,0
3911,-0.14,0.005,0
3912,-0.145,0.0,0
3913,-0.145,0.005,0
3914,-0.135,0.03,0
3915,-0.12,0.03,0
3916,-0.11,0.025,0
3917,-0.11,0.015,0
3918,-0.125,0.02,0
3919,-0.125,0.02,0
3920,-0.11,0.02,0
3921,-0.095,0.05,0
3922,-0.08,0.05,0
3923,-0.09,0.05,0
3924,-0.095,0.035,0
3925,-0.095,0.04,0
3926,-0.085,0.055,0
3927,-0.07,0.06,0
3928,-0.07,0.06,0
3929,-0.075,0.06,0
3930,-0.065,0.055,0
3931,-0.065,0.07,0
3932,-0.05,0.065,0
3933,-0.04,0.08,0
3934,-0.035,0.075,0
3935,-0.045,0.075,0
3936,-0.055,0.07,0
3937,-0.055,0.07,0
3938,-0.04,0.095,0
3939,-0.03,0.095,0
3940,-0.03,0.085,0
3941,-0.04,0.075,0
3942,-0.03,0.07,0
3943,-0.045,0.085,0
3944,-0.04,0.09,0
3945,-0.03,0.095,0
3946,-0.03,0.09,0
3947,-0.025,0.085,0
3948,-0.035,0.08,0
3949,-0.045,0.085,0
3950,-0.04,0.085,0
3951,-0.03,0.09,0
3952,-0.035,0.085,0
3953,-0.05,0.075,0
3954,-0.055,0.08,0
3955,-0.065,0.08,0
3956,-0.06,0.085,0
3957,-0.06,0.085,0
3958,-0.07,0.08,0
3959,-0.08,0.065,0
3960,-0.095,0.065,0
3961,-0.105,0.065,0
3962,-0.105,0.065,0
3963,-0.095,0.07,0
3964,-0.11,0.075,0
3965,-0.11,0.06,0
3966,-0.12,0.035,0
3967,-0.125,0.055,0
3968,-0.125,0.06,0
3969,-0.12,0.055,0
3970,-0.13,0.055,0
3971,-0.135,0.045,0
3972,-0.15,0.025,0
3973,-0.16,0.04,0
3974,-0.155,0.045,0
3975,-0.14,0.045,0
3976,-0.155,0.045,0
3977,-0.15,0.03,0
3978,-0.155,0.03,0
3979,-0.17,0.03,0
3980,-0.165,0.045,0
3981,-0.15,0.035,0
3982,-0.165,0.045,0
3983,-0.17,0.03,0
3984,-0.18,0.01,0
3985,-0.185,0.015,0
3986,-0.175,0.03,0
3987,-0.17,0.05,0
3988,-0.17,0.035,0
3989,-0.175,0.02,0
3990,-0.195,0.005,0
3991,-0.19,0.02,0
3992,-0.175,0.03,0
3993,-0.16,0.025,0
3994,-0.17,0.025,0
3995,-0.175,0.015,0
3996,-0.185,0.015,0
3997,-0.185,0.0,0
3998,-0.175,0.02,0
3999,-0.17,0.03,0
4000,-0.17,0.03,0
4001,-0.18,0.015,0
4002,-0.185,-0.005,0
4003,-0.2,0.015,0
4004,-0.185,0.025,0
4005,-0.18,0.02,0
4006,-0.18,0.025,0
4007,-0.185,0.01,0
4008,-0.18,-0.005,0
4009,-0.2,-0.005,0
4010,-0.2,0.015,0
4011,-0.185,0.02,0
4012,-0.175,0.01,0
4013,-0.185,0.005,0
4014,-0.185,0.0,0
4015,-0.2,0.0,0
4016,-0.19,0.01,0
4017,-0.185,0.01,0
4018,-0.185,0.02,0
4019,-0.205,0.005,0
4020,-0.21,0.0,0
4021,-0.22,0.0,0
4022,-0.2,0.0,0
4023,-0.195,0.005,0
4024,-0.19,0.005,0
4025,-0.2,-0.005,0
4026,-0.21,-0.01,0
4027,-0.21,-0.005,0
4028,-0.205,0.01,0
4029,-0.195,0.0,0
4030,-0.205,-0.005,0
4031,-0.205,-0.01,0
4032,-0.21,-0.005,0
4033,-0.21,0.0,0
4034,-0.205,0.01,0
4035,-0.195,0.005,0
4036,-0.2,0.01,0
4037,-0.22,0.0,0
4038,-0.23,-0.005,0
4039,-0.225,-0.005,0
4040,-0.215,0.01,0
4041,-0.2,0.015,0
4042,-0.21,0.01,0
4043,-0.22,-0.025,0
4044,-0.215,-0.025,0
4045,-0.23,-0.015,0
4046,-0.225,0.0,0
4047,-0.22,0.0,0
4048,-0.21,-0.005,0
4049,-0.215,-0.015,0
4050,-0.225,-0.025,0
4051,-0.235,-0.02,0
4052,-0.21,-0.01,0
4053,-0.22,-0.01,0
4054,-0.225,-0.02,0
4055,-0.23,-0.015,0
4056,-0.24,-0.03,0
4057,-0.24,-0.025,0
4058,-0.235,-0.01,0
4059,-0.23,-0.015,0
4060,-0.23,-0.02,0
4061,-0.225,-0.035,0
4062,-0.235,-0.045,0
4063,-0.25,-0.025,0
4064,-0.24,-0.03,0
4065,-0.24,-0.02,0
4066,-0.225,-0.03,0
4067,-0.235,-0.04,0
4068,-0.24,-0.045,0
4069,-0.24,-0.045,0
4070,-0.23,-0.03,0
4071,-0.235,-0.025,0
4072,-0.225,-0.02,0
4073,-0.245,-0.035,0
4074,-0.25,-0.045,0
4075,-0.255,-0.03,0
4076,-0.25,-0.02,0
4077,-0.25,-0.015,0
4078,-0.235,-0.015,0
4079,-0.255,-0.02,0
4080,-0.25,-0.03,0
4081,-0.255,-0.035,0
4082,-0.235,-0.015,0
4083,-0.26,0.01,0
4084,-0.25,-0.005,0
4085,-0.26,-0.005,0
4086,-0.255,-0.01,0
4087,-0.265,-0.01,0
4088,-0.25,0.0,0
4089,-0.24,0.005,0
4090,-0.23,0.01,0
4091,-0.25,-0.01,0
4092,-0.24,-0.01,0
4093,-0.22,-0.005,0
4094,-0.205,0.005,0
4095,-0.18,0.0,0
4096,-0.13,0.02,0
4097,-0.045,0.015,0
4098,0.15,0.025,0
4099,0.57,0.11,0
4100,0.935,0.38,0
4101,0.82,0.71,0
4102,0.415,0.71,1
4103,0.12,0.44,0
4104,0.035,0.235,0
4105,0.065,0.165,0
4106,0.085,0.175,0
4107,0.075,0.155,0
4108,0.05,0.13,0
4109,0.025,0.105,0
4110,0.02,0.085,0
4111,0.02,0.075,0
4112,0.05,0.07,0
4113,0.05,0.065,0
4114,0.07,0.05,0
4115,0.065,0.01,0
4116,0.05,-0.025,0
4117,0.035,-0.035,0
4118,0.035,-0.035,0
4119,0.035,-0.045,0
4120,0.02,-0.06,0
4121,0.0,-0.085,0
4122,-0.035,-0.115,0
4123,-0.075,-0.11,0
4124,-0.105,-0.125,0
4125,-0.135,-0.15,0
4126,-0.165,-0.155,0
4127,-0.22,-0.185,0
4128,-0.265,-0.21,0
4129,-0.305,-0.225,0
4130,-0.35,-0.23,0
4131,-0.415,-0.24,0
4132,-0.49,-0.245,0
4133,-0.56,-0.27,0
4134,-0.61,-0.29,0
4135,-0.67,-0.295,0
4136,-0.71,-0.29,0
4137,-0.765,-0.305,0
4138,-0.825,-0.325,0
4139,-0.865,-0.38,0
4140,-0.9,-0.425,0
4141,-0.92,-0.47,0
4142,-0.925,-0.51,0
4143,-0.935,-0.545,0
4144,-0.93,-0.58,0
4145,-0.935,-0.6,0
4146,-0.945,-0.64,0
4147,-0.935,-0.67,0
4148,-0.93,-0.685,0
4149,-0.895,-0.72,0
4150,-0.885,-0.745,0
4151,-0.875,-0.775,0
4152,-0.845,-0.82,0
4153,-0.81,-0.84,0
4154,-0.75,-0.865,0
4155,-0.685,-0.855,0
4156,-0.635,-0.855,0
4157,-0.605,-0.82,0
4158,-0.56,-0.8,0
4159,-0.525,-0.765,0
4160,-0.48,-0.705,0
4161,-0.425,-0.66,0
4162,-0.39,-0.605,0
4163,-0.37,-0.565,0
4164,-0.36,-0.52,0
4165,-0.34,-0.465,0
4166,-0.325,-0.4,0
4167,-0.3,-0.36,0
4168,-0.295,-0.33,0
4169,-0.305,-0.315,0
4170,-0.295,-0.285,0
4171,-0.285,-0.26,0
4172,-0.26,-0.225,0
4173,-0.245,-0.19,0
4174,-0.23,-0.18,0
4175,-0.24,-0.18,0
4176,-0.255,-0.175,0
4177,-0.255,-0.145,0
4178,-0.245,-0.12,0
4179,-0.24,-0.09,0
4180,-0.235,-0.085,0
4181,-0.24,-0.065,0
4182,-0.245,-0.045,0
4183,-0.23,-0.02,0
4184,-0.205,-0.005,0
4185,-0.17,0.03,0
4186,-0.165,0.035,0
4187,-0.16,0.035,0
4188,-0.155,0.035,0
4189,-0.155,0.045,0
4190,-0.13,0.065,0
4191,-0.115,0.065,0
4192,-0.11,0.075,0
4193,-0.11,0.05,0
4194,-0.11,0.06,0
4195,-0.12,0.055,0
4196,-0.105,0.065,0
4197,-0.095,0.08,0
4198,-0.085,0.08,0
4199,-0.09,0.09,0
4200,-0.085,0.085,0
4201,-0.075,0.1,0
4202,-0.065,0.1,0
4203,-0.05,0.11,0
4204,-0.045,0.1,0
4205,-0.035,0.095,0
4206,-0.05,0.095,0
4207,-0.045,0.1,0
4208,-0.03,0.125,0
4209,-0.02,0.12,0
4210,-0.01,0.125,0
4211,-0.015,0.125,0
4212,-0.03,0.12,0
4213,-0.025,0.125,0
4214,-0.015,0.14,0
4215,0.01,0.145,0
4216,0.015,0.155,0
4217,0.01,0.145,0
4218,0.01,0.14,0
4219,0.01,0.145,0
4220,0.02,0.17,0
4221,0.035,0.175,0
4222,0.04,0.175,0
4223,0.045,0.175,0
4224,0.035,0.175,0
4225,0.015,0.18,0
4226,0.03,0.2,0
4227,0.055,0.215,0
4228,0.065,0.215,0
4229,0.055,0.205,0
4230,0.04,0.205,0
4231,0.055,0.235,0
4232,0.055,0.24,0
4233,0.075,0.235,0
4234,0.07,0.245,0
4235,0.065,0.23,0
4236,0.06,0.23,0
4237,0.05,0.235,0
4238,0.06,0.255,0
4239,0.085,0.26,0
4240,0.085,0.26,0
4241,0.07,0.26,0
4242,0.06,0.245,0
4243,0.06,0.25,0
4244,0.08,0.275,0
4245,0.09,0.28,0
4246,0.085,0.275,0
4247,0.08,0.25,0
4248,0.07,0.245,0
4249,0.065,0.26,0
4250,0.065,0.27,0
4251,0.07,0.265,0
4252,0.065,0.26,0
4253,0.05,0.245,0
4254,0.045,0.23,0
4255,0.035,0.23,0
4256,0.025,0.24,0
4257,0.035,0.225,0
4258,0.025,0.23,0
4259,0.005,0.21,0
4260,-0.005,0.2,0
4261,-0.015,0.185,0
4262,-0.015,0.21,0
4263,-0.025,0.2,0
4264,-0.025,0.185,0
4265,-0.04,0.175,0
4266,-0.055,0.16,0
4267,-0.065,0.155,0
4268,-0.07,0.16,0
4269,-0.065,0.155,0
4270,-0.085,0.135,0
4271,-0.09,0.13,0
4272,-0.11,0.105,0
4273,-0.12,0.105,0
4274,-0.115,0.1,0
4275,-0.12,0.11,0
4276,-0.125,0.1,0
4277,-0.135,0.075,0
4278,-0.145,0.065,0
4279,-0.155,0.055,0
4280,-0.155,0.055,0
4281,-0.14,0.06,0
4282,-0.145,0.055,0
4283,-0.16,0.04,0
4284,-0.155,0.02,0
4285,-0.17,0.035,0
4286,-0.165,0.035,0
4287,-0.16,0.03,0
4288,-0.16,0.02,0
4289,-0.18,0.005,0
4290,-0.185,-0.015,0
4291,-0.195,0.0,0
4292,-0.18,0.0,0
4293,-0.175,0.005,0
4294,-0.18,-0.005,0
4295,-0.175,-0.005,0
4296,-0.19,-0.015,0
4297,-0.19,-0.015,0
4298,-0.195,-0.005,0
4299,-0.18,-0.005,0
4300,-0.2,-0.005,0
4301,-0.195,-0.02,0
4302,-0.19,-0.02,0
4303,-0.205,-0.015,0
4304,-0.19,-0.005,0
4305,-0.17,-0.005,0
4306,-0.175,-0.025,0
4307,-0.18,-0.025,0
4308,-0.195,-0.03,0
4309,-0.2,-0.02,0
4310,-0.195,-0.015,0
4311,-0.18,-0.01,0
4312,-0.18,-0.025,0
4313,-0.185,-0.03,0
4314,-0.195,-0.035,0
4315,-0.205,-0.025,0
4316,-0.185,-0.02,0
4317,-0.185,-0.01,0
4318,-0.195,-0.02,0
4319,-0.185,-0.03,0
4320,-0.195,-0.04,0
4321,-0.19,-0.025,0
4322,-0.19,-0.015,0
4323,-0.18,-0.02,0
4324,-0.18,-0.015,0
4325,-0.205,-0.035,0
4326,-0.195,-0.04,0
4327,-0.2,-0.03,0
4328,-0.185,-0.01,0
4329,-0.185,-0.01,0
4330,-0.19,-0.025,0
4331,-0.205,-0.025,0
4332,-0.215,-0.035,0
4333,-0.205,-0.045,0
4334,-0.19,-0.025,0
4335,-0.175,-0.015,0
4336,-0.18,-0.015,0
4337,-0.195,-0.04,0
4338,-0.19,-0.05,0
4339,-0.205,-0.035,0
4340,-0.205,-0.02,0
4341,-0.195,-0.015,0
4342,-0.205,-0.02,0
4343,-0.2,-0.04,0
4344,-0.215,-0.05,0
4345,-0.215,-0.04,0
4346,-0.2,-0.03,0
4347,-0.205,-0.03,0
4348,-0.21,-0.025,0
4349,-0.215,-0.05,0
4350,-0.22,-0.055,0
4351,-0.23,-0.04,0
4352,-0.23,-0.04,0
4353,-0.22,-0.035,0
4354,-0.21,-0.045,0
4355,-0.21,-0.05,0
4356,-0.225,-0.06,0
4357,-0.23,-0.055,0
4358,-0.225,-0.045,0
4359,-0.225,-0.045,0
4360,-0.22,-0.055,0
4361,-0.23,-0.065,0
4362,-0.245,-0.075,0
4363,-0.24,-0.065,0
4364,-0.24,-0.055,0
4365,-0.225,-0.05,0
4366,-0.225,-0.06,0
4367,-0.235,-0.065,0
4368,-0.23,-0.08,0
4369,-0.24,-0.075,0
4370,-0.225,-0.065,0
4371,-0.23,-0.06,0
4372,-0.215,-0.075,0
4373,-0.225,-0.08,0
4374,-0.24,-0.08,0
4375,-0.245,-0.08,0
4376,-0.23,-0.07,0
4377,-0.23,-0.05,0
4378,-0.225,-0.055,0
4379,-0.23,-0.065,0
4380,-0.24,-0.08,0
4381,-0.25,-0.075,0
4382,-0.24,-0.065,0
4383,-0.24,-0.07,0
4384,-0.23,-0.075,0
4385,-0.225,-0.085,0
4386,-0.24,-0.08,0
4387,-0.235,-0.075,0
4388,-0.23,-0.06,0
4389,-0.22,-0.07,0
4390,-0.205,-0.07,0
4391,-0.2,-0.07,0
4392,-0.21,-0.09,0
4393,-0.215,-0.085,0
4394,-0.22,-0.065,0
4395,-0.19,-0.07,0
4396,-0.19,-0.06,0
4397,-0.2,-0.075,0
4398,-0.2,-0.08,0
4399,-0.195,-0.07,0
4400,-0.16,-0.06,0
4401,-0.12,-0.04,0
4402,-0.04,-0.03,0
4403,0.14,-0.005,0
4404,0.54,0.095,0
4405,0.91,0.405,0
4406,0.82,0.725,0
4407,0.435,0.7,1
4408,0.145,0.42,0
4409,0.07,0.215,0
4410,0.09,0.155,0
4411,0.085,0.145,0
4412,0.065,0.13,0
4413,0.045,0.095,0
4414,0.04,0.075,0
4415,0.03,0.055,0
4416,0.005,0.045,0
4417,0.005,0.03,0
4418,0.0,0.02,0
4419,-0.005,0.005,0
4420,-0.015,-0.025,0
4421,-0.04,-0.06,0
4422,-0.045,-0.095,0
4423,-0.055,-0.11,0
4424,-0.06,-0.125,0
4425,-0.075,-0.12,0
4426,-0.095,-0.135,0
4427,-0.13,-0.16,0
4428,-0.185,-0.185,0
4429,-0.225,-0.19,0
4430,-0.26,-0.2,0
4431,-0.285,-0.21,0
4432,-0.33,-0.23,0
4433,-0.38,-0.255,0
4434,-0.46,-0.275,0
4435,-0.555,-0.295,0
4436,-0.605,-0.305,0
4437,-0.66,-0.325,0
4438,-0.71,-0.32,0
4439,-0.765,-0.345,0
4440,-0.815,-0.375,0
4441,-0.875,-0.385,0
4442,-0.905,-0.42,0
4443,-0.925,-0.465,0
4444,-0.935,-0.52,0
4445,-0.955,-0.585,0
4446,-0.955,-0.615,0
4447,-0.975,-0.635,0
4448,-0.965,-0.66,0
4449,-0.945,-0.67,0
4450,-0.94,-0.72,0
4451,-0.925,-0.765,0
4452,-0.915,-0.795,0
4453,-0.885,-0.815,0
4454,-0.835,-0.84,0
4455,-0.78,-0.875,0
4456,-0.74,-0.895,0
4457,-0.695,-0.915,0
4458,-0.625,-0.935,0
4459,-0.59,-0.895,0
4460,-0.56,-0.855,0
4461,-0.49,-0.815,0
4462,-0.45,-0.77,0
4463,-0.41,-0.74,0
4464,-0.39,-0.695,0
4465,-0.355,-0.625,0
4466,-0.33,-0.555,0
4467,-0.3,-0.505,0
4468,-0.295,-0.455,0
4469,-0.275,-0.405,0
4470,-0.285,-0.38,0
4471,-0.29,-0.34,0
4472,-0.29,-0.305,0
4473,-0.24,-0.265,0
4474,-0.22,-0.245,0
4475,-0.22,-0.245,0
4476,-0.235,-0.25,0
4477,-0.235,-0.21,0
4478,-0.23,-0.175,0
4479,-0.215,-0.155,0
4480,-0.21,-0.14,0
4481,-0.22,-0.14,0
4482,-0.23,-0.135,0
4483,-0.23,-0.1,0
4484,-0.2,-0.065,0
4485,-0.155,-0.045,0
4486,-0.16,-0.02,0
4487,-0.145,-0.01,0
4488,-0.15,-0.01,0
4489,-0.13,0.02,0
4490,-0.115,0.035,0
4491,-0.095,0.04,0
4492,-0.075,0.03,0
4493,-0.07,0.02,0
4494,-0.07,0.025,0
4495,-0.08,0.03,0
4496,-0.085,0.045,0
4497,-0.065,0.06,0
4498,-0.07,0.05,0
4499,-0.07,0.05,0
4500,-0.08,0.055,0
4501,-0.07,0.05,0
4502,-0.055,0.065,0
4503,-0.05,0.07,0
4504,-0.04,0.08,0
4505,-0.04,0.075,0
4506,-0.045,0.06,0
4507,-0.04,0.08,0
4508,-0.025,0.105,0
4509,-0.015,0.095,0
4510,-0.005,0.105,0
4511,-0.03,0.095,0
4512,-0.035,0.09,0
4513,-0.04,0.105,0
4514,-0.035,0.12,0
4515,-0.015,0.115,0
4516,-0.025,0.12,0
4517,-0.025,0.115,0
4518,-0.015,0.125,0
4519,-0.02,0.135,0
4520,0.005,0.14,0
4521,0.02,0.15,0
4522,0.015,0.155,0
4523,0.0,0.15,0
4524,-0.01,0.145,0
4525,-0.02,0.16,0
4526,-0.005,0.175,0
4527,0.015,0.175,0
4528,0.02,0.17,0
4529,0.01,0.18,0
4530,0.005,0.18,0
4531,0.0,0.19,0
4532,0.025,0.2,0
4533,0.03,0.195,0
4534,0.03,0.205,0
4535,0.03,0.215,0
4536,0.015,0.21,0
4537,0.025,0.22,0
4538,0.035,0.235,0
4539,0.045,0.235,0
4540,0.045,0.245,0
4541,0.055,0.245,0
4542,0.035,0.245,0
4543,0.02,0.25,0
4544,0.035,0.255,0
4545,0.05,0.265,0
4546,0.045,0.27,0
4547,0.035,0.25,0
4548,0.025,0.245,0
4549,0.035,0.255,0
4550,0.05,0.26,0
4551,0.055,0.26,0
4552,0.065,0.26,0
4553,0.055,0.24,0
4554,0.045,0.24,0
4555,0.025,0.23,0
4556,0.025,0.235,0
4557,0.025,0.245,0
4558,0.02,0.235,0
4559,0.0,0.21,0
4560,0.005,0.195,0
4561,-0.015,0.21,0
4562,-0.01,0.205,0
4563,-0.005,0.2,0
4564,-0.035,0.18,0
4565,-0.045,0.175,0
4566,-0.055,0.15,0
4567,-0.08,0.15,0
4568,-0.07,0.15,0
4569,-0.06,0.145,0
4570,-0.055,0.14,0
4571,-0.075,0.115,0
4572,-0.095,0.095,0
4573,-0.1,0.09,0
4574,-0.105,0.095,0
4575,-0.095,0.09,0
4576,-0.095,0.08,0
4577,-0.125,0.055,0
4578,-0.145,0.045,0
4579,-0.155,0.04,0
4580,-0.145,0.04,0
4581,-0.12,0.045,0
4582,-0.135,0.04,0
4583,-0.145,0.015,0
4584,-0.16,0.015,0
4585,-0.17,0.01,0
4586,-0.16,0.03,0
4587,-0.155,0.02,0
4588,-0.16,0.005,0
4589,-0.165,-0.005,0
4590,-0.185,-0.01,0
4591,-0.195,-0.015,0
4592,-0.18,-0.01,0
4593,-0.17,-0.015,0
4594,-0.175,-0.01,0
4595,-0.18,-0.02,0
4596,-0.19,-0.035,0
4597,-0.195,-0.02,0
4598,-0.19,-0.03,0
4599,-0.185,-0.015,0
4600,-0.185,-0.03,0
4601,-0.195,-0.035,0
4602,-0.205,-0.04,0
4603,-0.19,-0.03,0
4604,-0.18,-0.035,0
4605,-0.18,-0.03,0
4606,-0.175,-0.02,0
4607,-0.185,-0.045,0
4608,-0.19,-0.035,0
4609,-0.195,-0.025,0
4610,-0.19,-0.02,0
4611,-0.19,-0.03,0
4612,-0.2,-0.04,0
4613,-0.205,-0.05,0
4614,-0.22,-0.05,0
4615,-0.22,-0.04,0
4616,-0.215,-0.025,0
4617,-0.2,-0.035,0
4618,-0.2,-0.045,0
4619,-0.195,-0.045,0
4620,-0.2,-0.05,0
4621,-0.21,-0.045,0
4622,-0.195,-0.04,0
4623,-0.195,-0.025,0
4624,-0.19,-0.035,0
4625,-0.205,-0.045,0
4626,-0.225,-0.06,0
4627,-0.215,-0.055,0
4628,-0.215,-0.04,0
4629,-0.21,-0.035,0
4630,-0.21,-0.04,0
4631,-0.215,-0.05,0
4632,-0.23,-0.065,0
4633,-0.225,-0.05,0
4634,-0.225,-0.055,0
4635,-0.23,-0.04,0
4636,-0.225,-0.05,0
4637,-0.245,-0.06,0
4638,-0.255,-0.08,0
4639,-0.255,-0.075,0
4640,-0.24,-0.05,0
4641,-0.22,-0.065,0
4642,-0.225,-0.06,0
4643,-0.22,-0.065,0
4644,-0.23,-0.08,0
4645,-0.23,-0.075,0
4646,-0.23,-0.07,0
4647,-0.23,-0.075,0
4648,-0.245,-0.075,0
4649,-0.27,-0.09,0
4650,-0.275,-0.095,0
4651,-0.275,-0.08,0
4652,-0.255,-0.08,0
4653,-0.24,-0.08,0
4654,-0.24,-0.085,0
4655,-0.23,-0.095,0
4656,-0.25,-0.105,0
4657,-0.25,-0.09,0
4658,-0.26,-0.08,0
4659,-0.24,-0.085,0
4660,-0.245,-0.1,0
4661,-0.245,-0.1,0
4662,-0.245,-0.12,0
4663,-0.27,-0.11,0
4664,-0.265,-0.1,0
4665,-0.26,-0.095,0
4666,-0.26,-0.09,0
4667,-0.265,-0.105,0
4668,-0.25,-0.115,0
4669,-0.26,-0.11,0
4670,-0.24,-0.1,0
4671,-0.24,-0.1,0
4672,-0.245,-0.1,0
4673,-0.25,-0.11,0
4674,-0.265,-0.105,0
4675,-0.275,-0.115,0
4676,-0.26,-0.11,0
4677,-0.24,-0.09,0
4678,-0.25,-0.11,0
4679,-0.26,-0.115,0
4680,-0.27,-0.115,0
4681,-0.285,-0.105,0
4682,-0.27,-0.095,0
4683,-0.25,-0.1,0
4684,-0.245,-0.095,0
4685,-0.235,-0.115,0
4686,-0.245,-0.115,0
4687,-0.24,-0.11,0
4688,-0.24,-0.095,0
4689,-0.235,-0.095,0
4690,-0.235,-0.1,0
4691,-0.24,-0.11,0
4692,-0.25,-0.115,0
4693,-0.24,-0.11,0
4694,-0.23,-0.1,0
4695,-0.215,-0.09,0
4696,-0.2,-0.085,0
4697,-0.18,-0.095,0
4698,-0.13,-0.09,0
4699,-0.005,-0.065,0
4700,0.28,0.0,0
4701,0.74,0.165,0
4702,0.99,0.515,0
4703,0.715,0.725,0
4704,0.27,0.525,1
4705,0.03,0.23,0
4706,0.01,0.105,0
4707,0.075,0.1,0
4708,0.065,0.09,0
4709,0.035,0.045,0
4710,-0.005,0.025,0
4711,-0.015,0.02,0
4712,0.0,0.015,0
4713,0.01,0.005,0
4714,0.015,-0.025,0
4715,0.005,-0.05,0
4716,-0.005,-0.105,0
4717,-0.015,-0.13,0
4718,-0.01,-0.145,0
4719,0.005,-0.14,0
4720,-0.005,-0.165,0
4721,-0.015,-0.195,0
4722,-0.06,-0.21,0
4723,-0.09,-0.21,0
4724,-0.125,-0.22,0
4725,-0.15,-0.24,0
4726,-0.18,-0.27,0
4727,-0.245,-0.305,0
4728,-0.32,-0.33,0
4729,-0.43,-0.33,0
4730,-0.52,-0.33,0
4731,-0.575,-0.33,0
4732,-0.63,-0.345,0
4733,-0.685,-0.36,0
4734,-0.755,-0.375,0
4735,-0.82,-0.395,0
4736,-0.87,-0.415,0
4737,-0.885,-0.445,0
4738,-0.92,-0.485,0
4739,-0.935,-0.54,0
4740,-0.97,-0.58,0
4741,-0.975,-0.585,0
4742,-0.975,-0.6,0
4743,-0.975,-0.625,0
4744,-0.965,-0.655,0
4745,-0.98,-0.7,0
4746,-0.975,-0.73,0
4747,-0.96,-0.74,0
4748,-0.925,-0.765,0
4749,-0.885,-0.79,0
4750,-0.845,-0.825,0
4751,-0.79,-0.855,0
4752,-0.745,-0.85,0
4753,-0.71,-0.815,0
4754,-0.665,-0.765,0
4755,-0.6,-0.735,0
4756,-0.56,-0.705,0
4757,-0.51,-0.655,0
4758,-0.47,-0.61,0
4759,-0.44,-0.54,0
4760,-0.415,-0.465,0
4761,-0.37,-0.405,0
4762,-0.35,-0.35,0
4763,-0.345,-0.32,0
4764,-0.34,-0.3,0
4765,-0.34,-0.25,0
4766,-0.315,-0.215,0
4767,-0.3,-0.19,0
4768,-0.29,-0.18,0
4769,-0.295,-0.17,0
4770,-0.305,-0.16,0
4771,-0.305,-0.14,0
4772,-0.295,-0.105,0
4773,-0.28,-0.1,0
4774,-0.265,-0.085,0
4775,-0.265,-0.075,0
4776,-0.26,-0.05,0
4777,-0.235,-0.02,0
4778,-0.205,-0.005,0
4779,-0.175,0.025,0
4780,-0.175,0.025,0
4781,-0.165,0.025,0
4782,-0.16,0.04,0
4783,-0.15,0.045,0
4784,-0.13,0.05,0
4785,-0.13,0.045,0
4786,-0.105,0.055,0
4787,-0.11,0.055,0
4788,-0.095,0.055,0
4789,-0.095,0.065,0
4790,-0.075,0.06,0
4791,-0.055,0.065,0
4792,-0.03,0.08,0
4793,-0.03,0.07,0
4794,-0.02,0.07,0
4795,-0.02,0.085,0
4796,-0.005,0.115,0
4797,0.0,0.115,0
4798,-0.005,0.105,0
4799,-0.02,0.095,0
4800,-0.03,0.1,0
4801,-0.04,0.09,0
4802,-0.03,0.11,0
4803,-0.02,0.11,0
4804,-0.025,0.105,0
4805,-0.04,0.105,0
4806,-0.04,0.105,0
4807,-0.04,0.105,0
4808,-0.055,0.12,0
4809,-0.035,0.125,0
4810,-0.02,0.125,0
4811,-0.025,0.115,0
4812,-0.035,0.105,0
4813,-0.035,0.125,0
4814,-0.02,0.135,0
4815,-0.005,0.13,0
4816,-0.015,0.15,0
4817,-0.01,0.14,0
4818,-0.015,0.135,0
4819,-0.02,0.145,0
4820,-0.005,0.17,0
4821,0.015,0.175,0
4822,0.015,0.17,0
4823,0.015,0.175,0
4824,0.025,0.165,0
4825,0.01,0.18,0
4826,0.025,0.195,0
4827,0.045,0.2,0
4828,0.03,0.205,0
4829,0.04,0.21,0
4830,0.04,0.2,0
4831,0.04,0.22,0
4832,0.055,0.225,0
4833,0.065,0.24,0
4834,0.065,0.24,0
4835,0.07,0.235,0
4836,0.07,0.225,0
4837,0.075,0.235,0
4838,0.09,0.25,0
4839,0.1,0.245,0
4840,0.09,0.25,0
4841,0.095,0.25,0
4842,0.09,0.24,0
4843,0.08,0.245,0
4844,0.1,0.26,0
4845,0.105,0.255,0
4846,0.105,0.255,0
4847,0.095,0.245,0
4848,0.095,0.235,0
4849,0.09,0.245,0
4850,0.09,0.245,0
4851,0.1,0.24,0
4852,0.095,0.23,0
4853,0.085,0.22,0
4854,0.07,0.215,0
4855,0.065,0.225,0
4856,0.065,0.225,0
4857,0.075,0.22,0
4858,0.065,0.21,0
4859,0.055,0.19,0
4860,0.03,0.175,0
4861,0.025,0.185,0
4862,0.03,0.175,0
4863,0.04,0.17,0
4864,0.02,0.16,0
4865,0.005,0.15,0
4866,-0.015,0.13,0
4867,-0.02,0.14,0
4868,-0.01,0.135,0
4869,-0.005,0.13,0
4870,-0.015,0.125,0
4871,-0.035,0.115,0
4872,-0.05,0.09,0
4873,-0.055,0.09,0
4874,-0.04,0.09,0
4875,-0.035,0.085,0
4876,-0.035,0.075,0
4877,-0.06,0.06,0
4878,-0.07,0.05,0
4879,-0.07,0.055,0
4880,-0.07,0.06,0
4881,-0.055,0.045,0
4882,-0.065,0.035,0
4883,-0.075,0.02,0
4884,-0.08,0.02,0
4885,-0.09,0.02,0
4886,-0.08,0.03,0
4887,-0.075,0.025,0
4888,-0.08,0.015,0
4889,-0.085,0.01,0
4890,-0.1,-0.01,0
4891,-0.105,0.0,0
4892,-0.105,0.0,0
4893,-0.08,0.0,0
4894,-0.085,0.0,0
4895,-0.095,-0.015,0
4896,-0.095,-0.02,0
4897,-0.105,-0.015,0
4898,-0.09,0.0,0
4899,-0.1,-0.01,0
4900,-0.11,-0.005,0
4901,-0.1,-0.01,0
4902,-0.11,-0.03,0
4903,-0.11,-0.025,0
4904,-0.1,-0.015,0
4905,-0.09,-0.01,0
4906,-0.1,-0.015,0
4907,-0.11,-0.035,0
4908,-0.12,-0.04,0
4909,-0.12,-0.035,0
4910,-0.105,-0.02,0
4911,-0.1,-0.015,0
4912,-0.11,-0.01,0
4913,-0.11,-0.03,0
4914,-0.115,-0.03,0
4915,-0.13,-0.03,0
4916,-0.13,-0.015,0
4917,-0.12,-0.015,0
4918,-0.115,-0.015,0
4919,-0.12,-0.03,0
4920,-0.125,-0.025,0
4921,-0.12,-0.03,0
4922,-0.12,-0.015,0
4923,-0.115,-0.01,0
4924,-0.12,-0.01,0
4925,-0.13,-0.015,0
4926,-0.13,-0.035,0
4927,-0.145,-0.025,0
4928,-0.14,-0.015,0
4929,-0.125,-0.01,0
4930,-0.135,-0.03,0
4931,-0.145,-0.035,0
4932,-0.155,-0.04,0
4933,-0.15,-0.03,0
4934,-0.14,-0.025,0
4935,-0.15,-0.025,0
4936,-0.16,-0.03,0
4937,-0.155,-0.045,0
4938,-0.165,-0.035,0
4939,-0.17,-0.03,0
4940,-0.165,-0.04,0
4941,-0.145,-0.025,0
4942,-0.16,-0.035,0
4943,-0.17,-0.045,0
4944,-0.165,-0.055,0
4945,-0.175,-0.045,0
4946,-0.175,-0.03,0
4947,-0.16,-0.035,0
4948,-0.175,-0.035,0
4949,-0.175,-0.06,0
4950,-0.19,-0.065,0
4951,-0.2,-0.065,0
4952,-0.18,-0.055,0
4953,-0.17,-0.055,0
4954,-0.175,-0.05,0
4955,-0.18,-0.065,0
4956,-0.195,-0.08,0
4957,-0.19,-0.06,0
4958,-0.19,-0.055,0
4959,-0.18,-0.06,0
4960,-0.185,-0.06,0
4961,-0.19,-0.07,0
4962,-0.2,-0.075,0
4963,-0.195,-0.08,0
4964,-0.185,-0.06,0
4965,-0.18,-0.05,0
4966,-0.185,-0.065,0
4967,-0.185,-0.07,0
4968,-0.205,-0.07,0
4969,-0.2,-0.065,0
4970,-0.185,-0.065,0
4971,-0.175,-0.055,0
4972,-0.18,-0.065,0
4973,-0.18,-0.08,0
4974,-0.195,-0.08,0
4975,-0.205,-0.07,0
4976,-0.185,-0.07,0
4977,-0.185,-0.065,0
4978,-0.185,-0.075,0
4979,-0.19,-0.08,0
4980,-0.19,-0.085,0
4981,-0.195,-0.07,0
4982,-0.175,-0.065,0
4983,-0.17,-0.06,0
4984,-0.175,-0.065,0
4985,-0.175,-0.07,0
4986,-0.175,-0.085,0
4987,-0.175,-0.065,0
4988,-0.14,-0.055,0
4989,-0.12,-0.04,0
4990,-0.09,-0.035,0
4991,-0.03,-0.015,0
4992,0.155,0.045,0
4993,0.605,0.295,0
4994,0.91,0.66,0
4995,0.69,0.715,1
4996,0.275,0.445,0
4997,0.075,0.19,0
4998,0.075,0.105,0
4999,0.12,0.105,0
