1.3709382688061458,4.989965659857095
1.1991873731320746,4.878998739635112
1.1991873731320746,4.584335875391856
1.1991873731320746,3.8429594854564813
1.1991873731320746,2.7760596559274804
1.1991873731320746,2.0538186405603076
1.1991873731320746,1.6609467901786172
1.1991873731320746,1.3923757370179084
1.1991873731320746,1.3923757370179084
1.3791455211992931,1.3923757370179084
1.4881382521441286,1.2956855154641609
1.7875083448050098,1.2759803402505923
2.051365691651899,1.0251870678185686
2.350583712896313,0.0
2.656268593807958,0.0
2.8340861890889517,0.0
3.3030692152345167,0.0
3.3030692152345167,0.0
3.3030692152345167,0.0
3.3030692152345167,0.0
3.3030692152345167,0.0
3.3345954889637226,0.0
3.3345954889637226,0.0
3.6777035183206332,0.0
3.6777035183206332,0.0
3.6777035183206332,0.0
3.781765152238027,0.0
3.955365150202921,0.0
3.9808774440515875,0.6254340788044271
3.985469523749366,0.6473991364063936
4.0060685186921425,0.6473991364063936
3.9959728462415907,0.6608771680644016
3.9808774440515875,0.6608771680644016
3.964089376193301,0.6608771680644016
3.964089376193301,0.6608771680644016
3.956747580059467,0.6608771680644016
3.917671736278645,0.6813546735054259
3.8862040899135932,0.6829637132515702
3.8837997503814106,0.6913607516064327
3.8541587888936406,0.7163050802800147
3.85292318721129,0.7275189562747185
3.8375633737240076,0.7312510843011486
3.834056681151628,0.7461663109585125
3.7545467612173855,0.7529340966827603
3.6351197158047874,0.7555182955411356
3.4868607800518605,0.9289623078870954
3.2782898257127466,1.084694922354649
2.7730791471111864,1.1494422031624592
2.098788507177501,1.2448895809422198
1.924467808647903,1.2750171277698332
1.6056017219191876,1.2851055721635418
1.579827464319302,1.4939476816948218
1.5436238281933954,1.657900764260892
1.5402514935819713,2.131744471728959
1.5256983236241326,2.6491915672593964
1.4576698571238973,3.9128822250881607
1.4576698571238973,5.223082490147177
1.5402514935819713,5.476825663820258
1.5290067559146199,5.541316272011279
1.4537704792105648,5.552980270774645
1.417597300322474,5.552980270774645
1.417597300322474,5.552980270774645
1.417597300322474,5.552980270774645
1.4537704792105648,5.552980270774645
1.3794635771234451,5.552980270774645
1.3794635771234451,5.590841367692799
1.3646226718775987,5.598377172600846
1.3646226718775987,5.5887403025608515
1.3646226718775987,5.549978210511043
1.356292031021859,5.538107292023037
1.356292031021859,5.401185943227892
1.3066714367726011,5.367156711374626
1.059575037938572,5.312826691753273
0.0,5.127923950520899
0.0,5.1246339151750595
0.0,4.869572679325792
0.0,4.489135688402715
0.0,3.815494108383386
0.0,3.4058837422963744
0.0,3.3345954889637226
0.0,3.3030692152345162
0.0,3.3030692152345162
0.0,3.3030692152345162
0.0,3.3030692152345162
0.0,3.3030692152345162
0.0,3.3030692152345162
0.0,3.3030692152345162
0.0,3.3030692152345162
0.9725290222380459,3.3030692152345162
1.2798003728758167,3.919324015463251
1.3217508209543607,4.819051113507706
1.5379064454646747,5.246385232694289
1.5379064454646747,5.318210775337378
1.4747301250701077,5.336261301844758
1.4747301250701077,5.42994295522736
1.3217508209543607,5.42994295522736
1.2798003728758167,5.42994295522736
1.2526597875878263,5.2904292735861596
1.2526597875878263,5.2686719421588055
1.2526597875878263,5.2686719421588055
1.0320581098848267,5.2686719421588055
0.9403229307375444,5.2686719421588055
0.9403229307375444,5.2686719421588055
0.9403229307375444,5.264194260673197
0.9403229307375444,5.254416498054611
1.0077488989419667,5.029815306665462
1.0320581098848267,5.029815306665462
1.1968785142447564,5.029815306665462
1.1968785142447564,4.966131350292057
1.1968785142447564,4.843026207047648
1.1968785142447564,4.8361346894992705
1.2172761194634396,4.8361346894992705
1.5216214590801416,4.8361346894992705
1.475407067662568,4.8361346894992705
1.5216214590801416,4.843026207047648
1.5216214590801416,4.966131350292057
1.3104889846352272,4.843026207047648
1.3104889846352272,4.843026207047648
1.3104889846352272,4.843026207047648
1.07303011428452,5.018163803044131
1.07303011428452,5.128724760570918
1.07303011428452,5.128724760570918
1.07303011428452,5.054137870176116
1.07303011428452,4.937758123478042
1.3104889846352272,4.937758123478042
1.3293022367577865,4.937758123478042
1.4196609391317625,4.918579669060307
1.5119792587405954,4.877971564687684
1.5119792587405954,4.877971564687684
1.515569447759917,4.877971564687684
1.528668530820858,4.877971564687684
1.6916819286830587,4.877971564687684
1.5501991921939933,4.877971564687684
1.5501991921939933,4.918579669060307
1.5356360029919192,4.877971564687684
1.5501991921939933,4.739834702501056
1.6591123603768398,4.739834702501056
1.6591123603768398,4.739834702501056
1.6591123603768398,4.7551090612384685
1.6591123603768398,4.739834702501056
1.6591123603768398,4.634419413369563
1.6591123603768398,4.445836474822049
1.7514101531483068,4.2685418253686755
1.809070780459793,4.037058929148237
1.8120871899582955,3.872354183532365
1.9704179381153177,3.4410863984639612
1.9704179381153177,3.4410863984639612
2.007779550193137,3.0676608751306507
2.048127913237611,3.0676608751306507
2.048127913237611,3.0676608751306507
2.197511519448368,3.0676608751306507
2.197511519448368,3.0676608751306507
2.515889691379633,2.80229193552513
2.891364374609494,2.590226462212949
3.090820901872118,2.4820117880579047
3.2430558047573674,2.2807159360875855
3.299229487776776,2.1754538068551326
3.299229487776776,2.0735712684214267
3.318779052220785,1.8442647028916501
3.3780729670666374,1.399395170020567
3.71214393326099,1.2990049139058797
3.4456546064884184,1.2124254405380062
3.4456546064884184,1.0848689595411494
3.4456546064884184,1.0729524078178434
3.4456546064884184,0.9483334208855992
3.4456546064884184,0.9483334208855992
3.5979969718072895,0.9483334208855992
3.5979969718072895,0.9483334208855992
3.5979969718072895,0.8202119197252633
3.5979969718072895,0.8202119197252633
3.5979969718072895,0.7632315383000313
3.757143081402195,0.7632315383000313
3.757143081402195,0.7632315383000313
3.757143081402195,0.7009500373607739
3.64801944579119,0.7009500373607739
3.64801944579119,0.7009500373607739
3.64801944579119,0.7009500373607739
3.757143081402195,0.7009500373607739
3.757143081402195,0.7009500373607739
3.64801944579119,0.7009500373607739
3.6210250977145546,0.7632315383000313
3.6210250977145546,0.978251959751843
3.6210250977145546,0.978251959751843
3.6210250977145546,0.978251959751843
3.6180762244061144,1.0781844348983243
3.32554873227243,1.1233693891597794
3.2942093060656092,1.1963789807570504
3.2942093060656092,1.1963789807570504
3.2942093060656092,1.1963789807570504
3.32554873227243,1.2116362248354102
3.2942093060656092,1.238951917821618
2.8881528275893276,1.3083978936702017
2.852632703111556,1.3083978936702017
2.852632703111556,1.3530322299851774
2.852632703111556,1.3530322299851774
2.852632703111556,1.3530322299851774
2.666743040552922,1.460702024063552
2.666743040552922,1.467598771410655
2.666743040552922,1.467598771410655
2.666743040552922,1.6100827190888465
2.666743040552922,1.6100827190888465
2.666743040552922,1.6100827190888465
2.666743040552922,1.6388056720514381
2.7737253138318314,1.9798210954310878
2.7737253138318314,2.0402688955601125
2.7737253138318314,2.0402688955601125
2.7737253138318314,2.0402688955601125
2.7831461435721754,2.0402688955601125
2.8459232685262137,2.0402688955601125
2.7737253138318314,2.0402688955601125
2.7737253138318314,2.4848728624536314
2.7737253138318314,2.6548771418891497
2.7737253138318314,2.6548771418891497
2.7831461435721754,2.6548771418891497
2.7831461435721754,2.6548771418891497
2.7831461435721754,2.6588193129526174
2.7831461435721754,2.689607529723573
2.7831461435721754,2.6588193129526174
2.8220849122876728,2.4335694694290835
2.8124466874486385,2.27319246535937
2.8220849122876728,2.27319246535937
2.686050127763008,2.1747336423597807
2.613467102582258,2.0938993657781504
2.50033558921478,2.1747336423597807
2.50033558921478,2.1747336423597807
2.50033558921478,2.1747336423597807
2.50033558921478,2.1747336423597807
2.50033558921478,2.1747336423597807
2.50033558921478,2.2433573005575553
2.50033558921478,2.142631353616578
2.50033558921478,1.9595998600800772
2.697103695860613,1.9595998600800772
2.746238796903426,1.9595998600800772
2.746238796903426,2.2433573005575553
3.111370604059484,2.2433573005575553
3.111370604059484,1.9595998600800772
3.111370604059484,1.8775710876921985
3.2569004968044566,1.8775710876921985
3.259163129473523,1.8775710876921985
3.2218219609775867,1.8775710876921985
3.050194808005018,1.6238167660765517
3.050194808005018,1.5561480225842
3.050194808005018,1.503066721885357
3.050194808005018,1.503066721885357
3.050194808005018,1.503066721885357
2.78254964023643,1.503066721885357
2.78254964023643,1.3474498437181173
2.78254964023643,1.2647725764358497
2.78254964023643,1.2601623111086555
3.1196551396147774,1.2601623111086555
3.1196551396147774,1.2601623111086555
3.1196551396147774,1.2601623111086555
2.8333250854833567,1.3474498437181173
2.8333250854833567,1.3474498437181173
2.8333250854833567,1.3474498437181173
3.3568809307465535,1.3474498437181173
2.8333250854833567,1.3474498437181173
2.7626601884126836,1.4149164399678822
2.7626601884126836,1.415016048266291
2.7626601884126836,1.4520369323451574
2.7626601884126836,1.4520369323451574
2.7363077509371374,1.670235722226873
2.7363077509371374,2.0403049114825924
2.497869417489382,2.2960851613572677
2.497869417489382,2.4697553844216906
2.497869417489382,2.451461207024543
2.497869417489382,1.8649203900434803
2.7363077509371374,1.6992325455522996
2.7363077509371374,1.6992325455522996
2.7063037050355825,1.6992325455522996
2.7063037050355825,1.6992325455522996
2.7063037050355825,1.6992325455522996
2.7063037050355825,1.6992325455522996
2.7063037050355825,1.6992325455522996
2.7063037050355825,1.6992325455522996
2.3571706001809387,1.6992325455522996
2.349382690616355,1.8316778740177113
2.349382690616355,1.8981027766099747
2.349382690616355,1.9732670132902561
2.349382690616355,1.9732670132902561
2.349382690616355,2.1438513251826454
2.349382690616355,2.438342000384964
2.349382690616355,2.461814264009277
2.349382690616355,2.461814264009277
2.6825270869486917,2.461814264009277
2.7309725691197295,2.461814264009277
2.7309725691197295,2.5161803402229053
2.6825270869486917,2.672741737342041
2.6825270869486917,2.8928435181666705
2.4615335970902272,3.0092439090587875
2.1658031064119476,3.2120314934117125
2.1658031064119476,3.2857502711294235
1.940375640573784,3.614462128858962
1.940375640573784,3.8377932210797825
1.940375640573784,4.229557618442296
1.86538694410445,4.610332426187461
1.8198754553946588,4.755877610317777
1.7729380291224361,4.99839022832322
1.330205170237117,4.9104440338624595
1.190978067504606,4.9104440338624595
1.190978067504606,4.249902117963973
1.190978067504606,3.150360077143519
1.190978067504606,2.0715738433569726
1.190978067504606,1.5814520291348735
1.190978067504606,1.5695397234594204
1.190978067504606,1.5695397234594204
1.190978067504606,1.5695397234594204
1.3349343054215057,1.2328478122111912
1.7903260422520333,1.2328478122111912
2.0846324644257903,1.2328478122111912
2.6847736791177215,1.2328478122111912
3.1817404517089263,1.2328478122111912
3.448579840161567,1.1326355846346972
3.5020115878656055,1.1114213168240938
3.5328303259075917,1.1114213168240938
3.5459928898502997,1.1114213168240938
3.7578088490124917,1.1114213168240938
3.742463703642068,1.0263461512555563
3.7578088490124917,1.0263461512555563
3.949986821594317,0.844374099872359
3.954573467569882,0.8366658909710664
3.995818732049706,0.8366658909710664
4.022214454064145,0.8366658909710664
3.967379543120096,0.6994601413684547
3.9171987844536234,0.6994601413684547
3.9171987844536234,0.6900085629058269
3.9171987844536234,0.6790841807790345
3.995818732049706,0.6463670696745448
3.995818732049706,0.6463670696745448
3.9171987844536234,0.6790841807790345
3.8892005673117347,0.6900085629058269
3.7639159417976855,0.6463670696745448
3.7639159417976855,0.6216366253990607
3.8569771661854015,0.6216366253990607
3.8569771661854015,0.6216366253990607
3.8337118592156307,0.6463670696745448
3.7614555479303484,0.6875875513533097
3.7508732069419097,0.7763135140480831
3.742944855096497,0.8179680487011758
3.573559696469801,0.8179680487011758
3.4414084864672567,0.8179680487011758
3.2807483437811267,1.0538885409710699
3.0762239483941407,1.2357831793767535
1.988746928089061,1.2357831793767535
1.988746928089061,1.2490791654767763
1.988746928089061,1.2804424730104227
1.6334063823343716,1.4565243503006011
1.6162995351012368,1.6116280606978817
1.3442912212246136,2.0526750361121224
1.3442912212246136,2.5191626964733906
1.3442912212246136,3.4858562978152836
1.325824464870591,4.5897801470507655
1.325824464870591,5.123579726308813
1.325824464870591,5.28874529876915
1.3764951073643572,5.329533476129329
1.3764951073643572,5.484002437019343
1.3764951073643572,5.504977953020984
1.3993299106973507,5.504977953020984
1.4967807836008968,5.58681500382434
1.5220105043508803,5.671523448640739
1.5482087894815229,5.634766675919522
1.5220105043508803,5.63373861321023
1.5220105043508803,5.671523448640739
1.5220105043508803,5.63373861321023
1.5220105043508803,5.548743836833994
1.5173459043200863,5.548743836833994
1.335556975752929,5.548743836833994
1.335556975752929,5.548743836833994
1.335556975752929,5.535624290364214
1.335556975752929,5.480910539802453
1.335556975752929,5.437800069597622
1.252688440253635,5.387204109422505
1.252688440253635,5.354368081853892
1.252688440253635,4.977395160484726
1.335556975752929,4.493006111693344
1.3456459778024004,4.140012510418937
1.380900424860827,4.140012510418937
1.6107998191943704,4.140012510418937
1.6107998191943704,4.140012510418937
1.380900424860827,4.140012510418937
1.380900424860827,4.140012510418937
